0,1,2,3,4,5,6,7,8,9,10,11,12,13,14,15,16,17,18,19,20,21,22,23,24,25,26,27,28,29,30,31,32,33,34,35,36,37,38,39,40,41,42,43,44,45,46,47,48,49,50,51,52,53,54,55,56,57,58,59,60,61,62,63,64,65,66,67,68,69,70,71,72,73,74,75,76,77,78,79,80,81,82,83,84,85,86,87,88,89,90,91,92,93,94,95,96,97,98,99,100,101,102,103,104,105,106,107,108,109,110,111,112,113,114,115,116,117,118,119,120,121,122,123,124,125,126,127,128,129,130,131,132,133,134,135,136,137,138,139,140,141,142,143,144,145,146,147,148,149,150,151,152,153,154,155,156,157,158,159,160,161,162,163,164,165,166,167,168,169,170,171,172,173,174,175,176,177,178,179,180,181,182,183,184,185,186,187,188,189,190,191,192,193,194,195,196,197,198,199,200,201,202,203,204,205,206,207,208,209,210,211,212,213,214,215,216,217,218,219,220,221,222,223,224,225,226,227,228,229,230,231,232,233,234,235,236,237,238,239,240,241,242,243,244,245,246,247,248,249,250,251,252,253,254,255,256,257,258,259,260,261,262,263,264
-0.315,-0.3,-0.305,-0.31,-0.32,-0.33,-0.325,-0.315,-0.31,-0.305,-0.305,-0.31,-0.3,-0.305,-0.29,-0.3,-0.3,-0.305,-0.305,-0.29,-0.28,-0.295,-0.305,-0.315,-0.305,-0.295,-0.29,-0.28,-0.27,-0.275,-0.275,-0.27,-0.25,-0.25,-0.255,-0.225,-0.22,-0.205,-0.2,-0.205,-0.215,-0.23,-0.22,-0.225,-0.225,-0.225,-0.23,-0.235,-0.24,-0.235,-0.22,-0.21,-0.205,-0.245,-0.285,-0.285,-0.3,-0.31,-0.33,-0.33,-0.325,-0.315,-0.32,-0.315,-0.325,-0.34,-0.345,-0.34,-0.34,-0.35,-0.345,-0.355,-0.33,-0.335,-0.33,-0.32,-0.345,-0.355,-0.34,-0.33,-0.325,-0.33,-0.35,-0.365,-0.36,-0.38,-0.425,-0.445,-0.475,-0.51,-0.535,-0.505,-0.415,-0.3,-0.16,-0.015,0.235,0.49,0.72,0.875,0.94,0.905,0.755,0.49,0.165,-0.11,-0.27,-0.39,-0.45,-0.475,-0.455,-0.425,-0.39,-0.39,-0.385,-0.39,-0.38,-0.38,-0.38,-0.395,-0.385,-0.385,-0.385,-0.375,-0.395,-0.41,-0.41,-0.4,-0.395,-0.39,-0.405,-0.395,-0.385,-0.375,-0.39,-0.39,-0.405,-0.41,-0.41,-0.39,-0.39,-0.395,-0.405,-0.415,-0.4,-0.41,-0.405,-0.41,-0.415,-0.41,-0.4,-0.4,-0.395,-0.39,-0.405,-0.41,-0.39,-0.39,-0.385,-0.385,-0.41,-0.405,-0.395,-0.39,-0.375,-0.39,-0.395,-0.41,-0.4,-0.39,-0.39,-0.385,-0.405,-0.415,-0.415,-0.4,-0.395,-0.405,-0.415,-0.42,-0.42,-0.41,-0.415,-0.425,-0.42,-0.435,-0.43,-0.43,-0.42,-0.43,-0.45,-0.455,-0.45,-0.435,-0.445,-0.45,-0.455,-0.47,-0.46,-0.455,-0.45,-0.455,-0.47,-0.475,-0.46,-0.45,-0.445,-0.44,-0.435,-0.44,-0.41,-0.395,-0.37,-0.365,-0.36,-0.365,-0.34,-0.325,-0.315,-0.32,-0.33,-0.33,-0.32,-0.31,-0.3,-0.3,-0.32,-0.32,-0.315,-0.305,-0.305,-0.295,-0.32,-0.33,-0.305,-0.31,-0.3,-0.3,-0.32,-0.325,-0.31,-0.305,-0.315,-0.305,-0.315,-0.315,-0.31,-0.295,-0.29,-0.305,-0.31,-0.32,-0.315,-0.3,-0.315,-0.315,-0.315,-0.33,-0.315,-0.32,-0.315,-0.325,-0.335,-0.34,-0.335
-0.345,-0.345,-0.345,-0.33,-0.33,-0.335,-0.345,-0.35,-0.35,-0.34,-0.33,-0.345,-0.345,-0.355,-0.35,-0.34,-0.33,-0.34,-0.34,-0.34,-0.33,-0.335,-0.33,-0.335,-0.345,-0.345,-0.34,-0.33,-0.315,-0.295,-0.3,-0.295,-0.285,-0.275,-0.265,-0.265,-0.265,-0.255,-0.25,-0.24,-0.225,-0.215,-0.24,-0.245,-0.24,-0.245,-0.235,-0.245,-0.25,-0.275,-0.275,-0.265,-0.25,-0.225,-0.22,-0.23,-0.265,-0.27,-0.28,-0.285,-0.305,-0.32,-0.34,-0.33,-0.335,-0.335,-0.355,-0.37,-0.36,-0.345,-0.35,-0.355,-0.365,-0.375,-0.38,-0.37,-0.365,-0.365,-0.38,-0.385,-0.38,-0.375,-0.355,-0.37,-0.39,-0.405,-0.41,-0.435,-0.465,-0.49,-0.52,-0.555,-0.57,-0.525,-0.405,-0.25,-0.09,0.12,0.41,0.69,0.885,0.96,0.85,0.52,0.05,-0.32,-0.5,-0.505,-0.445,-0.415,-0.395,-0.39,-0.395,-0.39,-0.395,-0.405,-0.395,-0.405,-0.39,-0.395,-0.395,-0.41,-0.405,-0.4,-0.4,-0.415,-0.405,-0.42,-0.415,-0.405,-0.405,-0.42,-0.42,-0.435,-0.42,-0.41,-0.41,-0.405,-0.425,-0.43,-0.42,-0.415,-0.41,-0.41,-0.425,-0.42,-0.4,-0.395,-0.4,-0.4,-0.395,-0.415,-0.405,-0.39,-0.4,-0.4,-0.415,-0.425,-0.425,-0.415,-0.415,-0.41,-0.425,-0.425,-0.42,-0.415,-0.4,-0.4,-0.41,-0.425,-0.41,-0.405,-0.395,-0.4,-0.4,-0.405,-0.385,-0.4,-0.39,-0.39,-0.4,-0.415,-0.405,-0.405,-0.41,-0.415,-0.42,-0.42,-0.425,-0.415,-0.415,-0.41,-0.435,-0.43,-0.435,-0.42,-0.42,-0.42,-0.42,-0.425,-0.425,-0.415,-0.395,-0.395,-0.39,-0.375,-0.36,-0.34,-0.335,-0.33,-0.335,-0.335,-0.325,-0.32,-0.305,-0.305,-0.315,-0.31,-0.305,-0.3,-0.3,-0.3,-0.31,-0.31,-0.31,-0.315,-0.3,-0.305,-0.315,-0.32,-0.325,-0.31,-0.305,-0.305,-0.32,-0.325,-0.305,-0.31,-0.295,-0.31,-0.325,-0.33,-0.32,-0.32,-0.32,-0.325,-0.35,-0.35,-0.34,-0.335,-0.33,-0.335,-0.34,-0.36,-0.35,-0.35,-0.355,-0.36,-0.355,-0.365,-0.355,-0.35,-0.34,-0.355,-0.35
-0.365,-0.345,-0.345,-0.34,-0.355,-0.365,-0.36,-0.355,-0.355,-0.355,-0.375,-0.385,-0.355,-0.36,-0.355,-0.36,-0.36,-0.37,-0.36,-0.345,-0.355,-0.345,-0.345,-0.345,-0.34,-0.31,-0.305,-0.305,-0.31,-0.305,-0.29,-0.285,-0.275,-0.28,-0.28,-0.275,-0.265,-0.255,-0.245,-0.26,-0.265,-0.275,-0.28,-0.265,-0.27,-0.275,-0.28,-0.275,-0.28,-0.275,-0.265,-0.255,-0.24,-0.26,-0.28,-0.31,-0.31,-0.345,-0.36,-0.38,-0.385,-0.38,-0.37,-0.375,-0.385,-0.39,-0.395,-0.385,-0.385,-0.385,-0.395,-0.405,-0.4,-0.375,-0.375,-0.39,-0.395,-0.415,-0.405,-0.4,-0.39,-0.405,-0.425,-0.46,-0.475,-0.505,-0.51,-0.525,-0.54,-0.6,-0.645,-0.63,-0.575,-0.495,-0.385,-0.27,-0.115,0.09,0.37,0.635,0.81,0.86,0.77,0.475,0.065,-0.305,-0.5,-0.52,-0.475,-0.41,-0.39,-0.39,-0.4,-0.41,-0.405,-0.385,-0.39,-0.395,-0.405,-0.41,-0.405,-0.4,-0.39,-0.395,-0.41,-0.415,-0.41,-0.395,-0.405,-0.41,-0.405,-0.405,-0.41,-0.39,-0.385,-0.39,-0.395,-0.4,-0.4,-0.4,-0.395,-0.395,-0.405,-0.405,-0.4,-0.395,-0.385,-0.375,-0.385,-0.395,-0.39,-0.385,-0.375,-0.385,-0.395,-0.395,-0.385,-0.375,-0.375,-0.385,-0.395,-0.39,-0.39,-0.365,-0.375,-0.385,-0.395,-0.38,-0.385,-0.375,-0.38,-0.39,-0.38,-0.375,-0.375,-0.375,-0.375,-0.38,-0.39,-0.39,-0.365,-0.37,-0.375,-0.385,-0.39,-0.39,-0.375,-0.365,-0.385,-0.38,-0.39,-0.375,-0.375,-0.365,-0.37,-0.385,-0.395,-0.385,-0.385,-0.37,-0.365,-0.37,-0.375,-0.35,-0.335,-0.32,-0.315,-0.32,-0.325,-0.315,-0.295,-0.285,-0.3,-0.295,-0.285,-0.285,-0.28,-0.27,-0.28,-0.29,-0.295,-0.295,-0.29,-0.28,-0.29,-0.295,-0.31,-0.295,-0.285,-0.28,-0.275,-0.295,-0.305,-0.3,-0.295,-0.295,-0.285,-0.3,-0.305,-0.3,-0.295,-0.3,-0.305,-0.315,-0.31,-0.315,-0.295,-0.3,-0.31,-0.33,-0.34,-0.33,-0.32,-0.32,-0.315,-0.325,-0.335,-0.33,-0.315,-0.32,-0.32,-0.33,-0.345,-0.34,-0.335
-0.35,-0.35,-0.35,-0.34,-0.34,-0.345,-0.345,-0.38,-0.36,-0.36,-0.345,-0.345,-0.35,-0.355,-0.345,-0.33,-0.33,-0.335,-0.335,-0.34,-0.33,-0.32,-0.29,-0.29,-0.3,-0.305,-0.285,-0.28,-0.275,-0.28,-0.275,-0.27,-0.265,-0.25,-0.23,-0.245,-0.24,-0.255,-0.255,-0.245,-0.235,-0.255,-0.265,-0.26,-0.255,-0.27,-0.265,-0.28,-0.255,-0.25,-0.245,-0.265,-0.28,-0.3,-0.315,-0.325,-0.335,-0.345,-0.33,-0.335,-0.345,-0.36,-0.35,-0.34,-0.335,-0.345,-0.36,-0.365,-0.375,-0.37,-0.365,-0.365,-0.38,-0.375,-0.375,-0.365,-0.37,-0.36,-0.37,-0.38,-0.365,-0.36,-0.35,-0.355,-0.37,-0.385,-0.395,-0.43,-0.445,-0.485,-0.515,-0.565,-0.555,-0.475,-0.355,-0.22,-0.055,0.185,0.475,0.705,0.82,0.78,0.535,0.145,-0.2,-0.42,-0.5,-0.48,-0.45,-0.41,-0.4,-0.39,-0.39,-0.4,-0.405,-0.425,-0.425,-0.405,-0.395,-0.405,-0.405,-0.415,-0.405,-0.385,-0.39,-0.395,-0.395,-0.395,-0.395,-0.385,-0.39,-0.39,-0.4,-0.425,-0.41,-0.4,-0.395,-0.4,-0.405,-0.425,-0.415,-0.405,-0.405,-0.405,-0.41,-0.415,-0.405,-0.42,-0.405,-0.41,-0.41,-0.42,-0.415,-0.405,-0.395,-0.395,-0.395,-0.4,-0.395,-0.395,-0.405,-0.405,-0.42,-0.435,-0.415,-0.405,-0.395,-0.39,-0.415,-0.405,-0.405,-0.4,-0.395,-0.395,-0.405,-0.42,-0.415,-0.4,-0.395,-0.4,-0.405,-0.425,-0.425,-0.425,-0.42,-0.425,-0.45,-0.445,-0.45,-0.435,-0.445,-0.47,-0.455,-0.46,-0.44,-0.435,-0.425,-0.43,-0.445,-0.45,-0.445,-0.43,-0.42,-0.41,-0.425,-0.42,-0.405,-0.38,-0.37,-0.365,-0.365,-0.365,-0.345,-0.33,-0.315,-0.305,-0.305,-0.32,-0.31,-0.31,-0.305,-0.31,-0.315,-0.32,-0.315,-0.305,-0.305,-0.295,-0.31,-0.32,-0.31,-0.315,-0.295,-0.3,-0.305,-0.3,-0.285,-0.28,-0.29,-0.295,-0.305,-0.325,-0.305,-0.3,-0.3,-0.315,-0.325,-0.335,-0.325,-0.315,-0.32,-0.335,-0.33,-0.34,-0.325,-0.325,-0.32,-0.315,-0.335,-0.335,-0.345,-0.335,-0.325,-0.33,-0.315
-0.33,-0.315,-0.315,-0.33,-0.33,-0.335,-0.335,-0.33,-0.33,-0.33,-0.34,-0.34,-0.34,-0.325,-0.325,-0.325,-0.345,-0.35,-0.34,-0.33,-0.32,-0.31,-0.305,-0.305,-0.275,-0.27,-0.255,-0.26,-0.265,-0.26,-0.25,-0.235,-0.235,-0.22,-0.235,-0.235,-0.22,-0.23,-0.225,-0.235,-0.245,-0.255,-0.24,-0.23,-0.23,-0.25,-0.255,-0.25,-0.23,-0.205,-0.195,-0.21,-0.23,-0.27,-0.27,-0.285,-0.285,-0.31,-0.33,-0.34,-0.34,-0.345,-0.35,-0.35,-0.34,-0.355,-0.345,-0.34,-0.34,-0.345,-0.355,-0.37,-0.355,-0.37,-0.345,-0.34,-0.36,-0.38,-0.36,-0.345,-0.35,-0.35,-0.355,-0.38,-0.39,-0.395,-0.425,-0.455,-0.475,-0.51,-0.545,-0.54,-0.495,-0.405,-0.295,-0.16,0.04,0.315,0.595,0.8,0.885,0.795,0.52,0.13,-0.215,-0.425,-0.5,-0.49,-0.45,-0.4,-0.39,-0.395,-0.395,-0.4,-0.39,-0.38,-0.385,-0.385,-0.4,-0.41,-0.41,-0.39,-0.39,-0.405,-0.405,-0.415,-0.41,-0.395,-0.395,-0.4,-0.415,-0.415,-0.415,-0.4,-0.39,-0.39,-0.41,-0.415,-0.405,-0.395,-0.395,-0.395,-0.405,-0.41,-0.41,-0.4,-0.39,-0.395,-0.41,-0.425,-0.415,-0.405,-0.41,-0.405,-0.415,-0.425,-0.425,-0.41,-0.395,-0.39,-0.4,-0.41,-0.41,-0.4,-0.39,-0.41,-0.42,-0.42,-0.415,-0.415,-0.405,-0.42,-0.415,-0.425,-0.41,-0.4,-0.405,-0.4,-0.4,-0.41,-0.4,-0.395,-0.395,-0.405,-0.41,-0.425,-0.425,-0.41,-0.41,-0.42,-0.43,-0.445,-0.44,-0.435,-0.43,-0.43,-0.45,-0.445,-0.445,-0.435,-0.435,-0.445,-0.44,-0.45,-0.43,-0.43,-0.415,-0.4,-0.4,-0.385,-0.365,-0.335,-0.33,-0.325,-0.33,-0.33,-0.31,-0.295,-0.285,-0.29,-0.29,-0.31,-0.295,-0.285,-0.28,-0.3,-0.29,-0.295,-0.29,-0.28,-0.275,-0.275,-0.29,-0.29,-0.285,-0.27,-0.27,-0.27,-0.275,-0.29,-0.285,-0.275,-0.275,-0.29,-0.295,-0.305,-0.295,-0.295,-0.285,-0.29,-0.3,-0.305,-0.31,-0.295,-0.3,-0.305,-0.31,-0.325,-0.325,-0.315,-0.31,-0.315,-0.315,-0.325,-0.32
-0.33,-0.31,-0.32,-0.33,-0.33,-0.335,-0.33,-0.33,-0.32,-0.32,-0.33,-0.33,-0.325,-0.315,-0.315,-0.315,-0.33,-0.33,-0.32,-0.315,-0.305,-0.305,-0.295,-0.315,-0.3,-0.275,-0.255,-0.255,-0.26,-0.265,-0.255,-0.235,-0.23,-0.225,-0.22,-0.22,-0.215,-0.2,-0.205,-0.205,-0.225,-0.235,-0.24,-0.23,-0.215,-0.24,-0.24,-0.25,-0.235,-0.21,-0.2,-0.22,-0.255,-0.275,-0.285,-0.3,-0.305,-0.32,-0.33,-0.325,-0.32,-0.33,-0.33,-0.335,-0.34,-0.345,-0.34,-0.335,-0.32,-0.325,-0.335,-0.345,-0.345,-0.345,-0.335,-0.34,-0.345,-0.355,-0.34,-0.34,-0.34,-0.34,-0.345,-0.355,-0.365,-0.37,-0.405,-0.445,-0.48,-0.495,-0.52,-0.535,-0.505,-0.415,-0.28,-0.135,0.065,0.3,0.58,0.81,0.945,0.92,0.775,0.445,0.02,-0.295,-0.445,-0.47,-0.425,-0.38,-0.36,-0.36,-0.37,-0.38,-0.38,-0.375,-0.37,-0.365,-0.37,-0.385,-0.385,-0.375,-0.37,-0.37,-0.385,-0.395,-0.385,-0.385,-0.39,-0.385,-0.395,-0.41,-0.4,-0.395,-0.38,-0.395,-0.395,-0.4,-0.4,-0.395,-0.39,-0.39,-0.395,-0.405,-0.39,-0.385,-0.375,-0.375,-0.38,-0.39,-0.385,-0.37,-0.37,-0.37,-0.375,-0.385,-0.37,-0.39,-0.375,-0.37,-0.38,-0.39,-0.39,-0.385,-0.375,-0.375,-0.385,-0.395,-0.39,-0.385,-0.375,-0.38,-0.385,-0.39,-0.38,-0.38,-0.37,-0.37,-0.365,-0.39,-0.365,-0.365,-0.36,-0.375,-0.38,-0.4,-0.39,-0.375,-0.375,-0.37,-0.385,-0.39,-0.39,-0.39,-0.39,-0.375,-0.385,-0.395,-0.38,-0.37,-0.375,-0.375,-0.39,-0.405,-0.375,-0.37,-0.36,-0.375,-0.385,-0.38,-0.37,-0.36,-0.345,-0.345,-0.33,-0.33,-0.315,-0.31,-0.295,-0.285,-0.285,-0.295,-0.28,-0.27,-0.28,-0.28,-0.28,-0.29,-0.29,-0.28,-0.275,-0.28,-0.285,-0.29,-0.29,-0.28,-0.28,-0.285,-0.29,-0.3,-0.295,-0.285,-0.28,-0.285,-0.285,-0.295,-0.285,-0.28,-0.275,-0.28,-0.29,-0.31,-0.305,-0.285,-0.27,-0.27,-0.275,-0.285,-0.285,-0.27,-0.265,-0.265,-0.265,-0.28,-0.265
-0.28,-0.28,-0.285,-0.29,-0.3,-0.295,-0.285,-0.28,-0.285,-0.285,-0.295,-0.285,-0.28,-0.275,-0.28,-0.29,-0.31,-0.305,-0.285,-0.27,-0.27,-0.275,-0.285,-0.285,-0.27,-0.265,-0.265,-0.265,-0.28,-0.265,-0.245,-0.235,-0.235,-0.25,-0.25,-0.245,-0.215,-0.22,-0.245,-0.255,-0.23,-0.205,-0.21,-0.22,-0.23,-0.24,-0.24,-0.245,-0.25,-0.27,-0.285,-0.315,-0.32,-0.32,-0.31,-0.33,-0.34,-0.345,-0.36,-0.365,-0.36,-0.35,-0.355,-0.375,-0.385,-0.375,-0.37,-0.365,-0.365,-0.37,-0.38,-0.36,-0.35,-0.355,-0.355,-0.35,-0.365,-0.35,-0.35,-0.34,-0.355,-0.35,-0.375,-0.365,-0.375,-0.4,-0.43,-0.475,-0.52,-0.52,-0.55,-0.57,-0.54,-0.445,-0.305,-0.14,0.025,0.26,0.51,0.735,0.845,0.875,0.735,0.4,-0.025,-0.335,-0.48,-0.47,-0.415,-0.375,-0.365,-0.385,-0.4,-0.38,-0.39,-0.375,-0.385,-0.395,-0.405,-0.39,-0.38,-0.385,-0.385,-0.395,-0.4,-0.405,-0.4,-0.39,-0.39,-0.395,-0.4,-0.39,-0.385,-0.39,-0.385,-0.41,-0.42,-0.405,-0.41,-0.39,-0.39,-0.39,-0.4,-0.4,-0.39,-0.375,-0.38,-0.395,-0.4,-0.39,-0.4,-0.39,-0.395,-0.41,-0.415,-0.405,-0.385,-0.385,-0.38,-0.4,-0.4,-0.395,-0.39,-0.38,-0.375,-0.395,-0.395,-0.385,-0.38,-0.375,-0.385,-0.39,-0.4,-0.4,-0.385,-0.38,-0.395,-0.39,-0.4,-0.395,-0.385,-0.38,-0.385,-0.395,-0.405,-0.4,-0.39,-0.38,-0.38,-0.385,-0.405,-0.395,-0.4,-0.39,-0.4,-0.405,-0.425,-0.42,-0.405,-0.4,-0.405,-0.405,-0.415,-0.4,-0.39,-0.38,-0.385,-0.395,-0.405,-0.39,-0.37,-0.37,-0.37,-0.385,-0.37,-0.355,-0.345,-0.34,-0.335,-0.34,-0.355,-0.335,-0.325,-0.31,-0.305,-0.305,-0.32,-0.315,-0.31,-0.305,-0.305,-0.33,-0.325,-0.345,-0.325,-0.315,-0.315,-0.305,-0.31,-0.31,-0.3,-0.305,-0.305,-0.315,-0.32,-0.325,-0.315,-0.305,-0.315,-0.325,-0.325,-0.33,-0.315,-0.315,-0.31,-0.33,-0.34,-0.335,-0.33,-0.345,-0.355,-0.365,-0.37,-0.345,-0.34
-0.375,-0.37,-0.365,-0.36,-0.355,-0.36,-0.36,-0.35,-0.34,-0.345,-0.345,-0.355,-0.36,-0.36,-0.365,-0.345,-0.355,-0.35,-0.36,-0.355,-0.36,-0.345,-0.335,-0.33,-0.33,-0.31,-0.305,-0.3,-0.305,-0.295,-0.305,-0.285,-0.275,-0.265,-0.255,-0.255,-0.26,-0.265,-0.255,-0.255,-0.26,-0.28,-0.29,-0.28,-0.27,-0.255,-0.275,-0.29,-0.32,-0.3,-0.295,-0.27,-0.265,-0.27,-0.285,-0.3,-0.31,-0.315,-0.32,-0.35,-0.37,-0.365,-0.365,-0.365,-0.37,-0.37,-0.37,-0.38,-0.36,-0.375,-0.375,-0.4,-0.42,-0.405,-0.4,-0.385,-0.38,-0.4,-0.415,-0.405,-0.395,-0.395,-0.395,-0.41,-0.43,-0.44,-0.455,-0.49,-0.485,-0.52,-0.57,-0.575,-0.525,-0.42,-0.305,-0.19,-0.02,0.22,0.485,0.715,0.845,0.885,0.79,0.56,0.225,-0.07,-0.285,-0.425,-0.5,-0.55,-0.535,-0.5,-0.465,-0.45,-0.45,-0.435,-0.42,-0.41,-0.41,-0.415,-0.42,-0.425,-0.42,-0.43,-0.43,-0.44,-0.45,-0.45,-0.43,-0.43,-0.43,-0.445,-0.445,-0.44,-0.425,-0.43,-0.43,-0.425,-0.445,-0.445,-0.43,-0.435,-0.435,-0.445,-0.445,-0.435,-0.43,-0.425,-0.43,-0.43,-0.44,-0.42,-0.43,-0.425,-0.43,-0.44,-0.44,-0.43,-0.43,-0.415,-0.425,-0.43,-0.455,-0.445,-0.445,-0.43,-0.43,-0.44,-0.44,-0.435,-0.43,-0.415,-0.415,-0.425,-0.425,-0.42,-0.405,-0.405,-0.415,-0.415,-0.425,-0.43,-0.405,-0.405,-0.405,-0.405,-0.43,-0.415,-0.41,-0.415,-0.43,-0.445,-0.465,-0.46,-0.45,-0.455,-0.46,-0.465,-0.485,-0.495,-0.475,-0.49,-0.5,-0.495,-0.515,-0.5,-0.485,-0.49,-0.485,-0.5,-0.5,-0.49,-0.48,-0.46,-0.46,-0.47,-0.465,-0.44,-0.43,-0.425,-0.41,-0.41,-0.4,-0.39,-0.38,-0.355,-0.35,-0.355,-0.35,-0.34,-0.33,-0.325,-0.305,-0.32,-0.315,-0.305,-0.3,-0.305,-0.305,-0.31,-0.33,-0.31,-0.315,-0.315,-0.32,-0.325,-0.325,-0.325,-0.31,-0.31,-0.315,-0.325,-0.33,-0.325,-0.325,-0.315,-0.32,-0.33,-0.335,-0.33,-0.315,-0.32,-0.32,-0.335,-0.335
-0.35,-0.355,-0.365,-0.36,-0.345,-0.345,-0.35,-0.36,-0.36,-0.35,-0.355,-0.34,-0.345,-0.355,-0.355,-0.355,-0.34,-0.34,-0.345,-0.365,-0.37,-0.35,-0.33,-0.32,-0.315,-0.295,-0.305,-0.295,-0.3,-0.285,-0.275,-0.26,-0.275,-0.265,-0.26,-0.25,-0.245,-0.255,-0.265,-0.26,-0.26,-0.25,-0.26,-0.28,-0.28,-0.275,-0.285,-0.28,-0.255,-0.245,-0.245,-0.26,-0.285,-0.29,-0.3,-0.32,-0.335,-0.355,-0.35,-0.355,-0.355,-0.375,-0.385,-0.38,-0.36,-0.35,-0.36,-0.365,-0.37,-0.37,-0.365,-0.36,-0.365,-0.37,-0.385,-0.385,-0.365,-0.36,-0.38,-0.385,-0.395,-0.395,-0.385,-0.38,-0.395,-0.425,-0.465,-0.5,-0.515,-0.53,-0.56,-0.585,-0.53,-0.41,-0.255,-0.105,0.105,0.355,0.6,0.81,0.89,0.83,0.58,0.185,-0.205,-0.45,-0.525,-0.495,-0.465,-0.435,-0.415,-0.415,-0.415,-0.4,-0.395,-0.405,-0.425,-0.435,-0.415,-0.415,-0.415,-0.415,-0.43,-0.42,-0.41,-0.405,-0.42,-0.41,-0.42,-0.4,-0.395,-0.385,-0.4,-0.4,-0.4,-0.4,-0.395,-0.4,-0.4,-0.4,-0.41,-0.395,-0.41,-0.4,-0.395,-0.405,-0.41,-0.415,-0.405,-0.4,-0.395,-0.405,-0.415,-0.405,-0.415,-0.41,-0.405,-0.405,-0.41,-0.405,-0.4,-0.395,-0.405,-0.405,-0.4,-0.395,-0.39,-0.395,-0.39,-0.395,-0.42,-0.415,-0.405,-0.4,-0.4,-0.415,-0.42,-0.41,-0.395,-0.4,-0.405,-0.415,-0.435,-0.415,-0.415,-0.4,-0.405,-0.42,-0.43,-0.425,-0.41,-0.41,-0.405,-0.415,-0.425,-0.425,-0.42,-0.41,-0.41,-0.42,-0.43,-0.425,-0.42,-0.405,-0.415,-0.41,-0.41,-0.385,-0.37,-0.36,-0.35,-0.35,-0.35,-0.335,-0.32,-0.305,-0.315,-0.315,-0.32,-0.305,-0.305,-0.295,-0.29,-0.295,-0.295,-0.285,-0.285,-0.27,-0.28,-0.28,-0.295,-0.28,-0.285,-0.275,-0.285,-0.295,-0.305,-0.295,-0.285,-0.285,-0.29,-0.3,-0.31,-0.295,-0.3,-0.29,-0.285,-0.305,-0.31,-0.3,-0.295,-0.305,-0.3,-0.305,-0.32,-0.32,-0.31,-0.3,-0.31,-0.32,-0.34,-0.33,-0.31,-0.315,-0.325
-0.325,-0.315,-0.315,-0.32,-0.335,-0.335,-0.325,-0.32,-0.33,-0.34,-0.35,-0.33,-0.335,-0.325,-0.31,-0.34,-0.355,-0.335,-0.32,-0.305,-0.31,-0.315,-0.32,-0.35,-0.315,-0.32,-0.32,-0.32,-0.32,-0.32,-0.31,-0.31,-0.315,-0.315,-0.31,-0.295,-0.28,-0.28,-0.29,-0.295,-0.295,-0.285,-0.275,-0.24,-0.22,-0.215,-0.215,-0.175,-0.145,-0.14,-0.15,-0.185,-0.21,-0.215,-0.215,-0.205,-0.21,-0.215,-0.235,-0.255,-0.25,-0.25,-0.24,-0.255,-0.27,-0.275,-0.3,-0.3,-0.325,-0.32,-0.325,-0.315,-0.305,-0.305,-0.315,-0.32,-0.355,-0.35,-0.35,-0.335,-0.32,-0.325,-0.34,-0.35,-0.325,-0.305,-0.31,-0.325,-0.36,-0.355,-0.36,-0.355,-0.36,-0.37,-0.27,-0.085,0.135,0.385,0.69,0.945,1.02,0.89,0.605,0.345,0.115,-0.055,-0.14,-0.185,-0.235,-0.24,-0.25,-0.27,-0.3,-0.315,-0.34,-0.37,-0.38,-0.405,-0.395,-0.385,-0.375,-0.365,-0.375,-0.395,-0.415,-0.42,-0.405,-0.39,-0.41,-0.4,-0.41,-0.39,-0.395,-0.39,-0.395,-0.415,-0.425,-0.42,-0.395,-0.39,-0.4,-0.405,-0.405,-0.395,-0.385,-0.385,-0.385,-0.4,-0.405,-0.405,-0.4,-0.39,-0.385,-0.4,-0.415,-0.405,-0.39,-0.375,-0.37,-0.385,-0.4,-0.385,-0.37,-0.36,-0.365,-0.365,-0.375,-0.38,-0.355,-0.34,-0.34,-0.335,-0.345,-0.335,-0.32,-0.315,-0.33,-0.315,-0.33,-0.315,-0.3,-0.275,-0.255,-0.24,-0.255,-0.245,-0.235,-0.22,-0.21,-0.21,-0.215,-0.205,-0.185,-0.17,-0.15,-0.14,-0.145,-0.14,-0.115,-0.12,-0.125,-0.115,-0.13,-0.12,-0.12,-0.125,-0.115,-0.13,-0.125,-0.125,-0.13,-0.14,-0.16,-0.17,-0.19,-0.195,-0.19,-0.18,-0.195,-0.225,-0.235,-0.24,-0.235,-0.235,-0.24,-0.27,-0.275,-0.28,-0.275,-0.275,-0.28,-0.3,-0.31,-0.31,-0.305,-0.295,-0.295,-0.31,-0.32,-0.305,-0.3,-0.295,-0.315,-0.315,-0.32,-0.305,-0.305,-0.295,-0.31,-0.305,-0.3,-0.305,-0.3,-0.31,-0.295,-0.295,-0.295,-0.29,-0.285,-0.28,-0.275,-0.275,-0.285,-0.29,-0.275
-0.275,-0.285,-0.285,-0.27,-0.265,-0.27,-0.275,-0.285,-0.28,-0.265,-0.265,-0.275,-0.27,-0.275,-0.275,-0.275,-0.26,-0.265,-0.275,-0.285,-0.28,-0.28,-0.26,-0.27,-0.275,-0.28,-0.28,-0.27,-0.255,-0.225,-0.235,-0.245,-0.24,-0.22,-0.21,-0.215,-0.22,-0.225,-0.235,-0.23,-0.22,-0.19,-0.18,-0.185,-0.15,-0.115,-0.105,-0.1,-0.125,-0.15,-0.155,-0.15,-0.16,-0.175,-0.185,-0.2,-0.19,-0.19,-0.18,-0.195,-0.21,-0.225,-0.22,-0.225,-0.24,-0.24,-0.26,-0.29,-0.285,-0.28,-0.265,-0.275,-0.295,-0.305,-0.295,-0.29,-0.275,-0.285,-0.295,-0.305,-0.32,-0.305,-0.295,-0.3,-0.305,-0.305,-0.295,-0.285,-0.29,-0.31,-0.34,-0.37,-0.365,-0.29,-0.15,0.065,0.295,0.54,0.84,1.085,1.165,1.04,0.765,0.48,0.22,0.015,-0.08,-0.115,-0.185,-0.235,-0.245,-0.235,-0.24,-0.26,-0.3,-0.345,-0.35,-0.365,-0.35,-0.365,-0.375,-0.39,-0.375,-0.37,-0.37,-0.375,-0.385,-0.39,-0.395,-0.4,-0.39,-0.39,-0.4,-0.4,-0.39,-0.385,-0.385,-0.385,-0.395,-0.41,-0.4,-0.39,-0.385,-0.395,-0.395,-0.405,-0.405,-0.39,-0.38,-0.38,-0.395,-0.4,-0.41,-0.39,-0.385,-0.375,-0.385,-0.395,-0.395,-0.39,-0.38,-0.385,-0.39,-0.395,-0.385,-0.375,-0.365,-0.365,-0.37,-0.37,-0.365,-0.35,-0.34,-0.345,-0.345,-0.36,-0.35,-0.32,-0.305,-0.29,-0.3,-0.29,-0.295,-0.28,-0.255,-0.235,-0.245,-0.245,-0.235,-0.225,-0.205,-0.18,-0.18,-0.19,-0.17,-0.155,-0.145,-0.14,-0.15,-0.14,-0.145,-0.135,-0.11,-0.13,-0.125,-0.13,-0.135,-0.12,-0.12,-0.12,-0.145,-0.165,-0.17,-0.175,-0.175,-0.19,-0.215,-0.225,-0.235,-0.25,-0.245,-0.265,-0.27,-0.295,-0.315,-0.305,-0.295,-0.3,-0.315,-0.325,-0.325,-0.325,-0.325,-0.33,-0.34,-0.355,-0.36,-0.35,-0.335,-0.355,-0.36,-0.365,-0.365,-0.345,-0.35,-0.36,-0.36,-0.355,-0.35,-0.345,-0.335,-0.345,-0.365,-0.375,-0.365,-0.35,-0.355,-0.345,-0.35,-0.35,-0.355,-0.345,-0.33,-0.325,-0.33
-0.375,-0.365,-0.36,-0.355,-0.355,-0.365,-0.365,-0.345,-0.34,-0.36,-0.385,-0.38,-0.36,-0.345,-0.345,-0.365,-0.375,-0.385,-0.355,-0.35,-0.35,-0.36,-0.37,-0.37,-0.355,-0.35,-0.35,-0.365,-0.365,-0.36,-0.335,-0.325,-0.33,-0.325,-0.33,-0.315,-0.305,-0.31,-0.32,-0.325,-0.32,-0.31,-0.28,-0.265,-0.245,-0.24,-0.23,-0.23,-0.225,-0.22,-0.235,-0.25,-0.265,-0.275,-0.255,-0.26,-0.255,-0.27,-0.3,-0.315,-0.315,-0.32,-0.325,-0.335,-0.355,-0.365,-0.365,-0.38,-0.39,-0.4,-0.395,-0.38,-0.375,-0.385,-0.415,-0.42,-0.42,-0.425,-0.415,-0.405,-0.41,-0.425,-0.43,-0.41,-0.395,-0.4,-0.42,-0.425,-0.435,-0.45,-0.455,-0.465,-0.45,-0.41,-0.265,-0.025,0.205,0.46,0.715,0.975,1.095,1.01,0.755,0.46,0.19,-0.05,-0.185,-0.225,-0.25,-0.28,-0.325,-0.35,-0.355,-0.35,-0.365,-0.385,-0.425,-0.445,-0.445,-0.455,-0.45,-0.455,-0.48,-0.495,-0.485,-0.475,-0.47,-0.47,-0.48,-0.505,-0.5,-0.49,-0.48,-0.495,-0.5,-0.49,-0.49,-0.475,-0.465,-0.475,-0.475,-0.485,-0.49,-0.48,-0.475,-0.465,-0.475,-0.49,-0.475,-0.465,-0.475,-0.485,-0.485,-0.485,-0.475,-0.47,-0.465,-0.475,-0.475,-0.48,-0.47,-0.475,-0.46,-0.46,-0.465,-0.485,-0.475,-0.47,-0.455,-0.465,-0.455,-0.46,-0.46,-0.455,-0.435,-0.435,-0.43,-0.435,-0.435,-0.415,-0.41,-0.4,-0.395,-0.41,-0.4,-0.38,-0.355,-0.355,-0.375,-0.355,-0.345,-0.32,-0.305,-0.29,-0.29,-0.28,-0.275,-0.255,-0.235,-0.235,-0.235,-0.245,-0.24,-0.21,-0.195,-0.18,-0.19,-0.195,-0.19,-0.185,-0.175,-0.17,-0.18,-0.185,-0.175,-0.19,-0.19,-0.195,-0.21,-0.235,-0.26,-0.255,-0.255,-0.27,-0.295,-0.32,-0.335,-0.345,-0.325,-0.33,-0.355,-0.37,-0.37,-0.375,-0.365,-0.375,-0.38,-0.39,-0.41,-0.405,-0.405,-0.395,-0.41,-0.42,-0.42,-0.41,-0.39,-0.395,-0.405,-0.415,-0.42,-0.415,-0.41,-0.415,-0.42,-0.425,-0.425,-0.425,-0.4,-0.405,-0.415,-0.425,-0.42,-0.42,-0.42
-0.41,-0.405,-0.415,-0.415,-0.415,-0.405,-0.385,-0.41,-0.42,-0.43,-0.42,-0.41,-0.4,-0.405,-0.42,-0.42,-0.43,-0.415,-0.4,-0.41,-0.405,-0.405,-0.415,-0.4,-0.41,-0.41,-0.42,-0.41,-0.405,-0.39,-0.375,-0.375,-0.375,-0.375,-0.375,-0.365,-0.345,-0.345,-0.35,-0.375,-0.37,-0.335,-0.29,-0.27,-0.25,-0.235,-0.225,-0.225,-0.225,-0.245,-0.245,-0.26,-0.27,-0.275,-0.27,-0.275,-0.29,-0.31,-0.315,-0.32,-0.32,-0.33,-0.355,-0.38,-0.39,-0.395,-0.385,-0.4,-0.4,-0.42,-0.435,-0.425,-0.41,-0.42,-0.42,-0.43,-0.435,-0.43,-0.415,-0.425,-0.435,-0.44,-0.425,-0.43,-0.42,-0.41,-0.42,-0.43,-0.455,-0.46,-0.47,-0.49,-0.475,-0.415,-0.27,-0.045,0.18,0.43,0.72,0.98,1.1,1.04,0.79,0.48,0.175,-0.075,-0.23,-0.28,-0.305,-0.355,-0.38,-0.395,-0.395,-0.395,-0.4,-0.43,-0.455,-0.47,-0.485,-0.485,-0.485,-0.505,-0.51,-0.505,-0.515,-0.5,-0.49,-0.49,-0.495,-0.51,-0.525,-0.51,-0.49,-0.49,-0.485,-0.49,-0.505,-0.5,-0.485,-0.49,-0.49,-0.495,-0.485,-0.485,-0.485,-0.485,-0.49,-0.49,-0.485,-0.47,-0.47,-0.48,-0.475,-0.49,-0.49,-0.47,-0.455,-0.45,-0.455,-0.46,-0.47,-0.46,-0.455,-0.445,-0.465,-0.47,-0.46,-0.45,-0.43,-0.435,-0.425,-0.43,-0.435,-0.43,-0.42,-0.42,-0.42,-0.425,-0.41,-0.39,-0.375,-0.38,-0.37,-0.37,-0.38,-0.37,-0.355,-0.345,-0.355,-0.345,-0.34,-0.315,-0.3,-0.295,-0.28,-0.28,-0.27,-0.25,-0.245,-0.245,-0.235,-0.23,-0.235,-0.225,-0.205,-0.195,-0.195,-0.195,-0.2,-0.18,-0.17,-0.17,-0.17,-0.185,-0.185,-0.175,-0.165,-0.165,-0.18,-0.18,-0.185,-0.195,-0.205,-0.23,-0.24,-0.245,-0.265,-0.27,-0.27,-0.285,-0.305,-0.315,-0.315,-0.315,-0.31,-0.315,-0.32,-0.335,-0.34,-0.34,-0.335,-0.34,-0.345,-0.36,-0.365,-0.355,-0.35,-0.345,-0.36,-0.375,-0.37,-0.37,-0.365,-0.36,-0.365,-0.375,-0.365,-0.35,-0.33,-0.345,-0.35,-0.35,-0.35,-0.345,-0.33
-0.32,-0.325,-0.32,-0.315,-0.315,-0.31,-0.325,-0.33,-0.325,-0.325,-0.31,-0.3,-0.32,-0.32,-0.33,-0.325,-0.31,-0.32,-0.315,-0.315,-0.32,-0.325,-0.31,-0.305,-0.31,-0.32,-0.33,-0.315,-0.295,-0.29,-0.29,-0.31,-0.3,-0.285,-0.28,-0.28,-0.275,-0.285,-0.275,-0.25,-0.22,-0.2,-0.2,-0.18,-0.155,-0.13,-0.125,-0.13,-0.165,-0.18,-0.19,-0.195,-0.19,-0.2,-0.215,-0.22,-0.225,-0.23,-0.215,-0.235,-0.255,-0.26,-0.285,-0.295,-0.31,-0.31,-0.325,-0.335,-0.355,-0.35,-0.35,-0.36,-0.36,-0.37,-0.375,-0.36,-0.35,-0.35,-0.37,-0.385,-0.385,-0.375,-0.36,-0.37,-0.37,-0.37,-0.375,-0.39,-0.385,-0.405,-0.43,-0.43,-0.415,-0.3,-0.135,0.075,0.275,0.515,0.785,0.975,1.0,0.82,0.53,0.265,0.0,-0.2,-0.27,-0.3,-0.335,-0.37,-0.37,-0.36,-0.365,-0.39,-0.415,-0.455,-0.48,-0.47,-0.465,-0.48,-0.475,-0.5,-0.495,-0.485,-0.49,-0.49,-0.5,-0.515,-0.515,-0.5,-0.485,-0.485,-0.49,-0.51,-0.52,-0.52,-0.51,-0.495,-0.49,-0.5,-0.5,-0.515,-0.515,-0.52,-0.52,-0.52,-0.525,-0.505,-0.5,-0.49,-0.515,-0.515,-0.535,-0.51,-0.515,-0.515,-0.54,-0.545,-0.52,-0.51,-0.485,-0.485,-0.495,-0.51,-0.525,-0.51,-0.5,-0.495,-0.51,-0.505,-0.5,-0.475,-0.49,-0.48,-0.485,-0.495,-0.495,-0.495,-0.495,-0.49,-0.495,-0.485,-0.47,-0.45,-0.44,-0.44,-0.45,-0.465,-0.455,-0.445,-0.415,-0.42,-0.41,-0.415,-0.41,-0.395,-0.37,-0.365,-0.355,-0.36,-0.37,-0.355,-0.32,-0.305,-0.32,-0.325,-0.33,-0.315,-0.295,-0.3,-0.28,-0.285,-0.28,-0.275,-0.265,-0.265,-0.27,-0.28,-0.29,-0.295,-0.295,-0.305,-0.32,-0.32,-0.335,-0.33,-0.335,-0.36,-0.355,-0.365,-0.38,-0.405,-0.405,-0.415,-0.44,-0.435,-0.445,-0.44,-0.42,-0.425,-0.445,-0.45,-0.46,-0.445,-0.45,-0.455,-0.465,-0.47,-0.465,-0.44,-0.44,-0.46,-0.465,-0.465,-0.455,-0.455,-0.48,-0.49,-0.48,-0.48,-0.505,-0.485,-0.46,-0.455,-0.465
-0.445,-0.45,-0.47,-0.48,-0.455,-0.435,-0.44,-0.45,-0.47,-0.465,-0.445,-0.445,-0.465,-0.47,-0.465,-0.465,-0.465,-0.475,-0.48,-0.48,-0.475,-0.475,-0.455,-0.46,-0.47,-0.48,-0.48,-0.46,-0.46,-0.46,-0.46,-0.46,-0.47,-0.45,-0.44,-0.42,-0.415,-0.425,-0.425,-0.42,-0.405,-0.39,-0.4,-0.415,-0.4,-0.365,-0.32,-0.29,-0.305,-0.345,-0.385,-0.345,-0.34,-0.325,-0.35,-0.38,-0.4,-0.39,-0.38,-0.4,-0.405,-0.43,-0.45,-0.455,-0.45,-0.46,-0.47,-0.475,-0.49,-0.475,-0.47,-0.465,-0.465,-0.475,-0.47,-0.455,-0.46,-0.505,-0.55,-0.55,-0.535,-0.5,-0.465,-0.45,-0.475,-0.51,-0.535,-0.545,-0.52,-0.525,-0.525,-0.54,-0.535,-0.46,-0.31,-0.08,0.185,0.475,0.78,1.025,1.065,0.85,0.515,0.205,-0.095,-0.29,-0.38,-0.405,-0.465,-0.485,-0.505,-0.505,-0.505,-0.505,-0.54,-0.565,-0.59,-0.575,-0.555,-0.555,-0.56,-0.565,-0.585,-0.575,-0.565,-0.57,-0.56,-0.565,-0.57,-0.57,-0.56,-0.55,-0.57,-0.56,-0.58,-0.57,-0.575,-0.565,-0.575,-0.57,-0.57,-0.58,-0.57,-0.56,-0.565,-0.56,-0.565,-0.555,-0.555,-0.565,-0.555,-0.56,-0.575,-0.565,-0.55,-0.54,-0.53,-0.54,-0.57,-0.57,-0.565,-0.565,-0.555,-0.555,-0.555,-0.53,-0.52,-0.525,-0.525,-0.535,-0.53,-0.52,-0.5,-0.5,-0.515,-0.525,-0.525,-0.49,-0.475,-0.465,-0.48,-0.47,-0.47,-0.45,-0.445,-0.44,-0.435,-0.445,-0.445,-0.435,-0.435,-0.42,-0.395,-0.38,-0.355,-0.34,-0.33,-0.345,-0.34,-0.345,-0.345,-0.33,-0.31,-0.305,-0.295,-0.3,-0.315,-0.305,-0.28,-0.295,-0.3,-0.305,-0.31,-0.315,-0.325,-0.32,-0.32,-0.35,-0.36,-0.37,-0.37,-0.37,-0.385,-0.405,-0.41,-0.405,-0.41,-0.415,-0.435,-0.445,-0.47,-0.445,-0.445,-0.425,-0.455,-0.46,-0.465,-0.465,-0.465,-0.465,-0.455,-0.45,-0.46,-0.45,-0.445,-0.455,-0.465,-0.46,-0.465,-0.445,-0.43,-0.425,-0.445,-0.44,-0.45,-0.455,-0.435,-0.43,-0.43,-0.455,-0.465,-0.44,-0.425,-0.42,-0.44
-0.39,-0.37,-0.365,-0.35,-0.375,-0.39,-0.425,-0.42,-0.41,-0.405,-0.395,-0.395,-0.385,-0.39,-0.385,-0.38,-0.375,-0.365,-0.36,-0.355,-0.355,-0.35,-0.37,-0.375,-0.38,-0.385,-0.37,-0.355,-0.365,-0.37,-0.38,-0.38,-0.365,-0.34,-0.33,-0.335,-0.345,-0.35,-0.355,-0.325,-0.31,-0.32,-0.33,-0.32,-0.29,-0.255,-0.23,-0.19,-0.175,-0.185,-0.18,-0.2,-0.205,-0.22,-0.23,-0.235,-0.245,-0.25,-0.25,-0.255,-0.25,-0.25,-0.24,-0.255,-0.27,-0.275,-0.275,-0.285,-0.28,-0.305,-0.345,-0.365,-0.355,-0.365,-0.37,-0.355,-0.375,-0.365,-0.385,-0.38,-0.375,-0.36,-0.37,-0.375,-0.385,-0.375,-0.365,-0.345,-0.365,-0.385,-0.42,-0.44,-0.45,-0.38,-0.22,0.01,0.32,0.695,1.095,1.365,1.375,1.13,0.75,0.39,0.12,-0.015,-0.065,-0.1,-0.17,-0.2,-0.225,-0.235,-0.27,-0.305,-0.355,-0.375,-0.38,-0.395,-0.38,-0.395,-0.405,-0.425,-0.415,-0.41,-0.405,-0.4,-0.42,-0.43,-0.415,-0.415,-0.425,-0.435,-0.425,-0.43,-0.42,-0.41,-0.405,-0.415,-0.415,-0.425,-0.41,-0.4,-0.39,-0.405,-0.415,-0.42,-0.41,-0.39,-0.39,-0.395,-0.415,-0.42,-0.4,-0.395,-0.41,-0.42,-0.42,-0.415,-0.415,-0.39,-0.395,-0.39,-0.395,-0.39,-0.395,-0.39,-0.385,-0.385,-0.395,-0.385,-0.375,-0.36,-0.375,-0.37,-0.36,-0.355,-0.33,-0.32,-0.315,-0.32,-0.325,-0.32,-0.28,-0.26,-0.255,-0.26,-0.265,-0.26,-0.23,-0.205,-0.19,-0.19,-0.19,-0.185,-0.155,-0.135,-0.115,-0.125,-0.125,-0.11,-0.11,-0.105,-0.09,-0.09,-0.08,-0.08,-0.09,-0.065,-0.09,-0.09,-0.09,-0.1,-0.11,-0.125,-0.13,-0.145,-0.165,-0.19,-0.195,-0.2,-0.21,-0.23,-0.245,-0.26,-0.27,-0.265,-0.27,-0.28,-0.295,-0.325,-0.315,-0.31,-0.3,-0.29,-0.31,-0.32,-0.32,-0.305,-0.31,-0.33,-0.345,-0.355,-0.34,-0.33,-0.335,-0.325,-0.325,-0.33,-0.33,-0.32,-0.325,-0.33,-0.335,-0.335,-0.33,-0.315,-0.325,-0.32,-0.315,-0.325,-0.31,-0.315,-0.31,-0.295,-0.305
-0.3,-0.29,-0.285,-0.28,-0.285,-0.29,-0.3,-0.29,-0.295,-0.29,-0.29,-0.295,-0.3,-0.3,-0.295,-0.29,-0.295,-0.29,-0.31,-0.3,-0.29,-0.285,-0.285,-0.305,-0.3,-0.3,-0.295,-0.28,-0.285,-0.305,-0.3,-0.295,-0.27,-0.26,-0.26,-0.27,-0.285,-0.265,-0.25,-0.245,-0.255,-0.27,-0.27,-0.25,-0.23,-0.19,-0.15,-0.135,-0.135,-0.155,-0.15,-0.15,-0.15,-0.16,-0.185,-0.21,-0.205,-0.205,-0.215,-0.225,-0.23,-0.22,-0.21,-0.23,-0.25,-0.29,-0.3,-0.295,-0.305,-0.305,-0.33,-0.335,-0.335,-0.34,-0.335,-0.33,-0.32,-0.315,-0.34,-0.34,-0.315,-0.315,-0.335,-0.345,-0.35,-0.35,-0.335,-0.335,-0.33,-0.345,-0.355,-0.355,-0.365,-0.335,-0.205,0.015,0.32,0.695,1.075,1.325,1.305,1.045,0.69,0.36,0.105,-0.02,-0.055,-0.095,-0.145,-0.185,-0.205,-0.21,-0.235,-0.27,-0.285,-0.29,-0.3,-0.305,-0.32,-0.315,-0.305,-0.31,-0.36,-0.425,-0.47,-0.495,-0.495,-0.475,-0.455,-0.45,-0.45,-0.455,-0.45,-0.445,-0.425,-0.42,-0.42,-0.42,-0.42,-0.415,-0.415,-0.405,-0.415,-0.435,-0.435,-0.41,-0.4,-0.41,-0.41,-0.42,-0.415,-0.41,-0.415,-0.415,-0.42,-0.42,-0.435,-0.435,-0.43,-0.44,-0.435,-0.43,-0.43,-0.42,-0.405,-0.4,-0.42,-0.435,-0.445,-0.415,-0.405,-0.41,-0.415,-0.42,-0.435,-0.41,-0.4,-0.39,-0.39,-0.405,-0.395,-0.37,-0.365,-0.36,-0.36,-0.36,-0.33,-0.32,-0.315,-0.325,-0.33,-0.32,-0.32,-0.28,-0.25,-0.235,-0.21,-0.21,-0.225,-0.19,-0.165,-0.17,-0.18,-0.195,-0.21,-0.2,-0.175,-0.16,-0.175,-0.175,-0.18,-0.17,-0.165,-0.16,-0.175,-0.19,-0.195,-0.19,-0.22,-0.255,-0.3,-0.34,-0.335,-0.32,-0.315,-0.335,-0.345,-0.35,-0.35,-0.36,-0.365,-0.365,-0.365,-0.355,-0.37,-0.37,-0.365,-0.365,-0.375,-0.385,-0.385,-0.37,-0.38,-0.39,-0.405,-0.4,-0.405,-0.405,-0.385,-0.375,-0.385,-0.395,-0.415,-0.395,-0.375,-0.365,-0.37,-0.395,-0.39,-0.395,-0.38,-0.375,-0.37,-0.39,-0.405
-0.26,-0.26,-0.255,-0.255,-0.26,-0.26,-0.265,-0.25,-0.24,-0.255,-0.265,-0.28,-0.26,-0.255,-0.25,-0.245,-0.25,-0.255,-0.245,-0.24,-0.25,-0.245,-0.265,-0.27,-0.25,-0.25,-0.245,-0.25,-0.255,-0.255,-0.24,-0.245,-0.265,-0.26,-0.27,-0.28,-0.28,-0.265,-0.265,-0.26,-0.265,-0.255,-0.245,-0.23,-0.23,-0.235,-0.23,-0.235,-0.215,-0.19,-0.175,-0.175,-0.195,-0.225,-0.225,-0.225,-0.23,-0.215,-0.225,-0.225,-0.205,-0.165,-0.135,-0.135,-0.145,-0.165,-0.17,-0.17,-0.185,-0.205,-0.225,-0.23,-0.195,-0.155,-0.12,-0.07,-0.005,0.215,0.575,0.845,0.8,0.525,0.275,0.18,0.195,0.23,0.255,0.28,0.285,0.3,0.32,0.34,0.355,0.345,0.33,0.32,0.34,0.38,0.4,0.41,0.395,0.365,0.335,0.31,0.26,0.195,0.125,0.05,-0.035,-0.13,-0.25,-0.355,-0.42,-0.435,-0.395,-0.38,-0.39,-0.405,-0.44,-0.465,-0.47,-0.46,-0.435,-0.42,-0.405,-0.38,-0.34,-0.31,-0.295,-0.305,-0.31,-0.32,-0.32,-0.31,-0.31,-0.305,-0.29,-0.29,-0.265,-0.26,-0.24,-0.245,-0.24,-0.235,-0.215,-0.2,-0.195,-0.205,-0.215,-0.2,-0.2,-0.19,-0.19,-0.19,-0.185,-0.195,-0.185,-0.175,-0.165,-0.17,-0.17,-0.16,-0.15,-0.14,-0.135,-0.135,-0.15,-0.15,-0.14,-0.13,-0.12,-0.12,-0.115,-0.115,-0.1,-0.09,-0.085,-0.08,-0.09,-0.09,-0.08,-0.06,-0.06,-0.05,-0.045,-0.07,-0.055,-0.055,-0.04,-0.04,-0.045,-0.05,-0.05,-0.05,-0.05,-0.05,-0.05,-0.065,-0.065,-0.065,-0.07,-0.07,-0.09,-0.105,-0.105,-0.105,-0.11,-0.11,-0.14,-0.15,-0.15,-0.155,-0.15,-0.155,-0.185,-0.185,-0.18,-0.185,-0.175,-0.19,-0.205,-0.225,-0.22,-0.205,-0.2,-0.215,-0.225,-0.225,-0.23,-0.23,-0.225,-0.225,-0.23,-0.24,-0.245,-0.23,-0.235,-0.23,-0.245,-0.25,-0.23,-0.235,-0.23,-0.235,-0.25,-0.245,-0.245,-0.235,-0.24,-0.23,-0.235,-0.245,-0.235,-0.23,-0.225,-0.22,-0.22,-0.235,-0.23,-0.22,-0.205,-0.225,-0.23,-0.23,-0.23
-0.25,-0.255,-0.245,-0.24,-0.24,-0.24,-0.255,-0.255,-0.26,-0.245,-0.245,-0.25,-0.265,-0.275,-0.27,-0.25,-0.255,-0.27,-0.275,-0.285,-0.285,-0.265,-0.275,-0.275,-0.28,-0.29,-0.275,-0.275,-0.265,-0.275,-0.29,-0.305,-0.3,-0.29,-0.285,-0.285,-0.295,-0.305,-0.29,-0.295,-0.275,-0.275,-0.305,-0.295,-0.3,-0.285,-0.28,-0.29,-0.305,-0.3,-0.305,-0.29,-0.295,-0.29,-0.305,-0.31,-0.31,-0.29,-0.29,-0.3,-0.295,-0.305,-0.3,-0.295,-0.29,-0.29,-0.295,-0.3,-0.285,-0.28,-0.285,-0.275,-0.305,-0.295,-0.29,-0.285,-0.28,-0.285,-0.3,-0.305,-0.305,-0.29,-0.29,-0.28,-0.285,-0.285,-0.275,-0.27,-0.26,-0.26,-0.255,-0.255,-0.23,-0.19,-0.155,-0.1,0.01,0.24,0.63,0.915,0.885,0.595,0.32,0.2,0.19,0.21,0.205,0.21,0.195,0.19,0.2,0.225,0.23,0.22,0.205,0.185,0.195,0.18,0.175,0.155,0.115,0.07,0.045,0.0,-0.04,-0.105,-0.155,-0.215,-0.28,-0.35,-0.405,-0.45,-0.44,-0.39,-0.33,-0.285,-0.28,-0.305,-0.325,-0.365,-0.36,-0.35,-0.335,-0.31,-0.29,-0.29,-0.29,-0.31,-0.32,-0.335,-0.34,-0.345,-0.355,-0.335,-0.335,-0.335,-0.34,-0.345,-0.33,-0.32,-0.305,-0.3,-0.3,-0.3,-0.29,-0.285,-0.285,-0.28,-0.29,-0.28,-0.285,-0.265,-0.265,-0.27,-0.265,-0.27,-0.265,-0.25,-0.245,-0.245,-0.245,-0.25,-0.25,-0.225,-0.225,-0.23,-0.235,-0.245,-0.215,-0.21,-0.195,-0.2,-0.2,-0.205,-0.195,-0.17,-0.16,-0.165,-0.16,-0.165,-0.145,-0.135,-0.135,-0.135,-0.13,-0.135,-0.125,-0.12,-0.11,-0.125,-0.125,-0.135,-0.13,-0.125,-0.12,-0.125,-0.13,-0.14,-0.135,-0.135,-0.13,-0.135,-0.15,-0.16,-0.16,-0.145,-0.15,-0.155,-0.175,-0.19,-0.185,-0.185,-0.185,-0.19,-0.205,-0.205,-0.205,-0.2,-0.205,-0.21,-0.23,-0.22,-0.225,-0.215,-0.22,-0.22,-0.23,-0.225,-0.22,-0.225,-0.23,-0.23,-0.235,-0.24,-0.225,-0.225,-0.225,-0.22,-0.225,-0.235,-0.225,-0.22,-0.21,-0.215,-0.23
-0.235,-0.24,-0.235,-0.24,-0.23,-0.225,-0.23,-0.24,-0.245,-0.245,-0.24,-0.23,-0.24,-0.245,-0.25,-0.25,-0.245,-0.24,-0.24,-0.255,-0.27,-0.255,-0.255,-0.245,-0.255,-0.26,-0.27,-0.265,-0.265,-0.265,-0.255,-0.265,-0.27,-0.275,-0.26,-0.26,-0.265,-0.27,-0.27,-0.275,-0.26,-0.255,-0.265,-0.28,-0.29,-0.285,-0.27,-0.265,-0.27,-0.28,-0.29,-0.29,-0.275,-0.265,-0.27,-0.29,-0.28,-0.275,-0.26,-0.26,-0.27,-0.285,-0.285,-0.27,-0.265,-0.27,-0.265,-0.285,-0.285,-0.28,-0.265,-0.265,-0.27,-0.27,-0.27,-0.265,-0.265,-0.265,-0.27,-0.27,-0.28,-0.28,-0.26,-0.255,-0.255,-0.26,-0.265,-0.255,-0.245,-0.235,-0.24,-0.23,-0.235,-0.195,-0.15,-0.12,-0.035,0.17,0.515,0.87,0.87,0.57,0.275,0.155,0.15,0.175,0.18,0.175,0.16,0.16,0.16,0.17,0.165,0.155,0.135,0.115,0.115,0.12,0.11,0.09,0.04,0.0,-0.06,-0.11,-0.16,-0.205,-0.27,-0.335,-0.425,-0.505,-0.53,-0.52,-0.48,-0.445,-0.405,-0.375,-0.345,-0.335,-0.34,-0.33,-0.32,-0.295,-0.27,-0.255,-0.225,-0.22,-0.225,-0.255,-0.27,-0.29,-0.305,-0.31,-0.325,-0.32,-0.31,-0.29,-0.295,-0.305,-0.315,-0.305,-0.305,-0.3,-0.3,-0.305,-0.315,-0.305,-0.295,-0.295,-0.31,-0.315,-0.315,-0.32,-0.305,-0.3,-0.315,-0.31,-0.315,-0.305,-0.295,-0.29,-0.3,-0.3,-0.295,-0.295,-0.275,-0.26,-0.28,-0.28,-0.27,-0.26,-0.255,-0.245,-0.24,-0.245,-0.245,-0.235,-0.205,-0.21,-0.2,-0.21,-0.205,-0.18,-0.165,-0.155,-0.155,-0.155,-0.155,-0.14,-0.135,-0.115,-0.125,-0.125,-0.135,-0.12,-0.125,-0.11,-0.115,-0.13,-0.135,-0.13,-0.115,-0.125,-0.115,-0.12,-0.14,-0.125,-0.13,-0.125,-0.135,-0.145,-0.15,-0.15,-0.145,-0.15,-0.175,-0.18,-0.2,-0.19,-0.19,-0.185,-0.2,-0.21,-0.22,-0.21,-0.21,-0.225,-0.225,-0.23,-0.235,-0.225,-0.225,-0.22,-0.225,-0.245,-0.25,-0.24,-0.235,-0.23,-0.225,-0.24,-0.24,-0.235,-0.24,-0.235,-0.245
-0.29,-0.27,-0.275,-0.28,-0.285,-0.285,-0.29,-0.285,-0.3,-0.295,-0.3,-0.29,-0.29,-0.275,-0.285,-0.31,-0.305,-0.31,-0.305,-0.3,-0.305,-0.305,-0.315,-0.3,-0.295,-0.295,-0.295,-0.31,-0.33,-0.305,-0.3,-0.29,-0.29,-0.3,-0.31,-0.305,-0.3,-0.295,-0.3,-0.305,-0.315,-0.3,-0.305,-0.3,-0.29,-0.305,-0.315,-0.305,-0.305,-0.295,-0.295,-0.305,-0.305,-0.295,-0.305,-0.295,-0.295,-0.315,-0.31,-0.315,-0.3,-0.295,-0.305,-0.31,-0.32,-0.31,-0.3,-0.285,-0.28,-0.285,-0.29,-0.29,-0.27,-0.27,-0.28,-0.295,-0.305,-0.29,-0.29,-0.285,-0.285,-0.285,-0.295,-0.295,-0.28,-0.27,-0.27,-0.275,-0.27,-0.25,-0.24,-0.23,-0.225,-0.2,-0.17,-0.095,0.055,0.35,0.715,0.88,0.7,0.39,0.205,0.15,0.15,0.145,0.125,0.11,0.125,0.135,0.14,0.12,0.11,0.09,0.09,0.09,0.08,0.06,0.045,0.035,-0.01,-0.045,-0.1,-0.17,-0.22,-0.265,-0.31,-0.375,-0.46,-0.55,-0.6,-0.6,-0.59,-0.57,-0.525,-0.5,-0.485,-0.48,-0.485,-0.49,-0.48,-0.485,-0.45,-0.42,-0.375,-0.335,-0.32,-0.315,-0.32,-0.32,-0.305,-0.295,-0.3,-0.295,-0.28,-0.27,-0.255,-0.25,-0.23,-0.225,-0.22,-0.21,-0.215,-0.225,-0.235,-0.245,-0.225,-0.21,-0.21,-0.195,-0.2,-0.215,-0.215,-0.22,-0.225,-0.23,-0.23,-0.25,-0.245,-0.25,-0.24,-0.235,-0.235,-0.245,-0.24,-0.245,-0.255,-0.26,-0.275,-0.275,-0.26,-0.255,-0.255,-0.26,-0.265,-0.265,-0.25,-0.24,-0.235,-0.225,-0.23,-0.23,-0.215,-0.21,-0.22,-0.21,-0.215,-0.21,-0.195,-0.175,-0.15,-0.145,-0.155,-0.16,-0.165,-0.145,-0.14,-0.13,-0.125,-0.105,-0.1,-0.085,-0.075,-0.08,-0.105,-0.1,-0.095,-0.095,-0.085,-0.09,-0.1,-0.115,-0.1,-0.09,-0.09,-0.095,-0.115,-0.125,-0.12,-0.11,-0.115,-0.12,-0.12,-0.14,-0.14,-0.135,-0.14,-0.16,-0.17,-0.18,-0.175,-0.175,-0.165,-0.18,-0.19,-0.2,-0.2,-0.185,-0.195,-0.18,-0.205,-0.215,-0.215,-0.21,-0.21
-0.28,-0.27,-0.275,-0.275,-0.29,-0.3,-0.285,-0.28,-0.28,-0.29,-0.29,-0.3,-0.3,-0.275,-0.285,-0.285,-0.295,-0.305,-0.3,-0.29,-0.285,-0.285,-0.305,-0.305,-0.3,-0.29,-0.3,-0.295,-0.315,-0.315,-0.31,-0.3,-0.3,-0.305,-0.305,-0.32,-0.3,-0.295,-0.295,-0.3,-0.315,-0.32,-0.31,-0.305,-0.29,-0.3,-0.31,-0.315,-0.305,-0.3,-0.3,-0.295,-0.315,-0.315,-0.315,-0.3,-0.295,-0.305,-0.315,-0.315,-0.305,-0.295,-0.3,-0.295,-0.32,-0.32,-0.29,-0.3,-0.295,-0.3,-0.295,-0.3,-0.3,-0.3,-0.3,-0.29,-0.305,-0.3,-0.31,-0.3,-0.285,-0.295,-0.305,-0.31,-0.29,-0.275,-0.27,-0.27,-0.285,-0.28,-0.265,-0.25,-0.23,-0.205,-0.17,-0.13,-0.015,0.215,0.58,0.845,0.815,0.54,0.27,0.155,0.135,0.14,0.135,0.14,0.14,0.15,0.165,0.16,0.16,0.17,0.17,0.16,0.145,0.125,0.125,0.1,0.1,0.08,0.05,0.02,-0.03,-0.08,-0.13,-0.16,-0.22,-0.28,-0.34,-0.41,-0.48,-0.53,-0.565,-0.555,-0.525,-0.49,-0.465,-0.445,-0.45,-0.445,-0.445,-0.45,-0.43,-0.41,-0.4,-0.385,-0.37,-0.34,-0.305,-0.28,-0.28,-0.295,-0.32,-0.325,-0.32,-0.32,-0.325,-0.32,-0.33,-0.325,-0.32,-0.295,-0.295,-0.29,-0.29,-0.29,-0.275,-0.275,-0.285,-0.275,-0.265,-0.265,-0.25,-0.25,-0.245,-0.245,-0.25,-0.24,-0.225,-0.23,-0.225,-0.23,-0.225,-0.235,-0.215,-0.2,-0.18,-0.185,-0.18,-0.175,-0.175,-0.175,-0.18,-0.2,-0.22,-0.23,-0.225,-0.235,-0.24,-0.255,-0.25,-0.255,-0.24,-0.23,-0.235,-0.23,-0.24,-0.24,-0.23,-0.215,-0.225,-0.22,-0.21,-0.21,-0.195,-0.195,-0.185,-0.19,-0.19,-0.185,-0.17,-0.165,-0.17,-0.16,-0.17,-0.165,-0.145,-0.15,-0.145,-0.15,-0.155,-0.16,-0.16,-0.15,-0.155,-0.15,-0.165,-0.175,-0.165,-0.165,-0.175,-0.185,-0.205,-0.205,-0.2,-0.195,-0.2,-0.215,-0.215,-0.225,-0.22,-0.21,-0.215,-0.215,-0.24,-0.245,-0.25,-0.24,-0.245,-0.25,-0.26,-0.26,-0.26
-0.315,-0.325,-0.32,-0.305,-0.305,-0.32,-0.315,-0.33,-0.325,-0.325,-0.315,-0.305,-0.32,-0.34,-0.33,-0.32,-0.32,-0.32,-0.325,-0.335,-0.335,-0.345,-0.33,-0.32,-0.325,-0.34,-0.345,-0.34,-0.32,-0.315,-0.335,-0.345,-0.335,-0.335,-0.33,-0.335,-0.335,-0.34,-0.34,-0.33,-0.32,-0.33,-0.335,-0.345,-0.35,-0.335,-0.325,-0.32,-0.33,-0.34,-0.345,-0.33,-0.325,-0.325,-0.335,-0.345,-0.34,-0.345,-0.32,-0.315,-0.33,-0.335,-0.34,-0.33,-0.33,-0.325,-0.32,-0.335,-0.33,-0.325,-0.315,-0.315,-0.33,-0.34,-0.33,-0.325,-0.31,-0.305,-0.31,-0.31,-0.325,-0.315,-0.3,-0.3,-0.305,-0.31,-0.31,-0.3,-0.29,-0.28,-0.275,-0.265,-0.265,-0.23,-0.18,-0.11,0.005,0.26,0.645,0.89,0.8,0.455,0.19,0.1,0.095,0.12,0.12,0.11,0.105,0.11,0.1,0.12,0.12,0.125,0.095,0.075,0.06,0.065,0.08,0.06,0.03,-0.015,-0.05,-0.08,-0.115,-0.17,-0.225,-0.29,-0.35,-0.405,-0.465,-0.545,-0.6,-0.625,-0.59,-0.55,-0.505,-0.475,-0.455,-0.46,-0.455,-0.46,-0.445,-0.44,-0.43,-0.41,-0.39,-0.34,-0.295,-0.295,-0.3,-0.315,-0.355,-0.33,-0.33,-0.345,-0.355,-0.35,-0.35,-0.33,-0.32,-0.295,-0.305,-0.305,-0.31,-0.31,-0.3,-0.29,-0.28,-0.29,-0.285,-0.285,-0.275,-0.26,-0.27,-0.27,-0.27,-0.255,-0.255,-0.26,-0.26,-0.255,-0.265,-0.26,-0.24,-0.24,-0.24,-0.24,-0.25,-0.24,-0.225,-0.21,-0.22,-0.215,-0.215,-0.2,-0.2,-0.195,-0.2,-0.2,-0.195,-0.185,-0.17,-0.16,-0.15,-0.15,-0.16,-0.145,-0.14,-0.14,-0.14,-0.14,-0.14,-0.135,-0.125,-0.125,-0.11,-0.115,-0.125,-0.09,-0.08,-0.08,-0.08,-0.09,-0.095,-0.085,-0.08,-0.075,-0.08,-0.09,-0.085,-0.085,-0.08,-0.09,-0.1,-0.11,-0.135,-0.13,-0.125,-0.135,-0.15,-0.175,-0.19,-0.2,-0.2,-0.195,-0.21,-0.23,-0.22,-0.23,-0.22,-0.22,-0.245,-0.27,-0.255,-0.255,-0.25,-0.255,-0.26,-0.255,-0.265,-0.265,-0.25,-0.255,-0.255
-0.32,-0.32,-0.315,-0.33,-0.345,-0.34,-0.335,-0.325,-0.335,-0.325,-0.33,-0.34,-0.335,-0.32,-0.33,-0.335,-0.335,-0.345,-0.335,-0.33,-0.33,-0.34,-0.35,-0.34,-0.34,-0.33,-0.325,-0.33,-0.34,-0.34,-0.335,-0.33,-0.33,-0.33,-0.34,-0.35,-0.34,-0.33,-0.33,-0.33,-0.335,-0.34,-0.345,-0.33,-0.335,-0.335,-0.34,-0.335,-0.325,-0.32,-0.32,-0.32,-0.33,-0.32,-0.315,-0.31,-0.32,-0.33,-0.335,-0.335,-0.32,-0.315,-0.33,-0.325,-0.315,-0.31,-0.305,-0.285,-0.295,-0.295,-0.305,-0.32,-0.305,-0.28,-0.275,-0.285,-0.29,-0.3,-0.29,-0.285,-0.28,-0.295,-0.295,-0.295,-0.285,-0.285,-0.28,-0.28,-0.28,-0.275,-0.27,-0.26,-0.23,-0.21,-0.16,-0.085,0.095,0.42,0.81,0.935,0.735,0.385,0.185,0.14,0.15,0.155,0.145,0.145,0.145,0.15,0.155,0.14,0.13,0.11,0.115,0.11,0.125,0.115,0.1,0.065,0.04,0.02,-0.01,-0.07,-0.14,-0.195,-0.25,-0.295,-0.365,-0.455,-0.53,-0.58,-0.56,-0.53,-0.475,-0.455,-0.46,-0.46,-0.47,-0.465,-0.455,-0.43,-0.425,-0.385,-0.33,-0.29,-0.27,-0.28,-0.315,-0.32,-0.31,-0.32,-0.32,-0.32,-0.315,-0.315,-0.285,-0.255,-0.245,-0.25,-0.26,-0.25,-0.25,-0.235,-0.235,-0.245,-0.24,-0.245,-0.23,-0.22,-0.21,-0.235,-0.23,-0.225,-0.205,-0.195,-0.21,-0.185,-0.195,-0.195,-0.18,-0.175,-0.175,-0.165,-0.19,-0.185,-0.175,-0.165,-0.16,-0.165,-0.145,-0.145,-0.13,-0.115,-0.115,-0.11,-0.115,-0.11,-0.105,-0.095,-0.09,-0.095,-0.08,-0.095,-0.075,-0.065,-0.065,-0.065,-0.07,-0.06,-0.045,-0.04,-0.03,-0.025,-0.03,-0.045,-0.02,-0.025,-0.02,-0.025,-0.05,-0.04,-0.035,-0.01,-0.005,-0.01,-0.03,-0.03,-0.03,-0.045,-0.04,-0.055,-0.06,-0.085,-0.095,-0.095,-0.095,-0.11,-0.11,-0.11,-0.12,-0.12,-0.13,-0.14,-0.16,-0.17,-0.165,-0.17,-0.185,-0.185,-0.2,-0.205,-0.2,-0.185,-0.19,-0.2,-0.19,-0.2,-0.185,-0.18,-0.185,-0.19,-0.205,-0.22,-0.21
-0.245,-0.245,-0.245,-0.255,-0.25,-0.245,-0.26,-0.26,-0.265,-0.27,-0.255,-0.255,-0.26,-0.255,-0.255,-0.265,-0.26,-0.25,-0.28,-0.265,-0.265,-0.275,-0.265,-0.265,-0.265,-0.275,-0.27,-0.28,-0.265,-0.255,-0.25,-0.275,-0.28,-0.275,-0.275,-0.27,-0.275,-0.26,-0.27,-0.265,-0.275,-0.255,-0.255,-0.26,-0.265,-0.27,-0.26,-0.25,-0.26,-0.255,-0.265,-0.26,-0.25,-0.24,-0.25,-0.255,-0.26,-0.26,-0.255,-0.25,-0.255,-0.245,-0.27,-0.275,-0.27,-0.255,-0.255,-0.26,-0.265,-0.26,-0.26,-0.255,-0.245,-0.245,-0.255,-0.26,-0.255,-0.255,-0.25,-0.25,-0.26,-0.265,-0.255,-0.24,-0.245,-0.245,-0.25,-0.255,-0.24,-0.225,-0.22,-0.22,-0.225,-0.225,-0.175,-0.115,-0.035,0.155,0.51,0.88,0.955,0.685,0.345,0.185,0.155,0.175,0.19,0.195,0.195,0.185,0.19,0.19,0.2,0.195,0.165,0.14,0.135,0.13,0.13,0.125,0.085,0.045,-0.015,-0.075,-0.12,-0.17,-0.24,-0.32,-0.39,-0.48,-0.555,-0.58,-0.575,-0.54,-0.51,-0.485,-0.47,-0.45,-0.45,-0.44,-0.435,-0.415,-0.37,-0.34,-0.285,-0.265,-0.28,-0.285,-0.29,-0.285,-0.295,-0.305,-0.315,-0.305,-0.285,-0.27,-0.25,-0.26,-0.26,-0.265,-0.26,-0.24,-0.235,-0.245,-0.245,-0.25,-0.25,-0.225,-0.22,-0.235,-0.25,-0.245,-0.23,-0.22,-0.215,-0.215,-0.24,-0.225,-0.21,-0.195,-0.2,-0.205,-0.23,-0.215,-0.205,-0.195,-0.19,-0.185,-0.185,-0.175,-0.165,-0.16,-0.155,-0.16,-0.16,-0.16,-0.13,-0.13,-0.12,-0.125,-0.12,-0.11,-0.095,-0.08,-0.075,-0.09,-0.095,-0.1,-0.07,-0.07,-0.08,-0.085,-0.08,-0.075,-0.05,-0.045,-0.055,-0.06,-0.065,-0.075,-0.06,-0.06,-0.06,-0.07,-0.08,-0.1,-0.1,-0.085,-0.095,-0.11,-0.125,-0.14,-0.135,-0.14,-0.13,-0.14,-0.155,-0.17,-0.165,-0.165,-0.165,-0.17,-0.18,-0.175,-0.18,-0.175,-0.175,-0.185,-0.195,-0.2,-0.19,-0.185,-0.19,-0.2,-0.215,-0.225,-0.21,-0.2,-0.205,-0.215,-0.205,-0.22,-0.21,-0.2,-0.21
-0.22,-0.23,-0.23,-0.22,-0.21,-0.19,-0.195,-0.2,-0.23,-0.235,-0.23,-0.22,-0.22,-0.23,-0.23,-0.245,-0.24,-0.24,-0.245,-0.26,-0.28,-0.305,-0.285,-0.28,-0.28,-0.285,-0.295,-0.31,-0.295,-0.285,-0.275,-0.295,-0.31,-0.31,-0.315,-0.295,-0.295,-0.315,-0.32,-0.32,-0.305,-0.295,-0.3,-0.32,-0.315,-0.315,-0.305,-0.295,-0.305,-0.31,-0.31,-0.31,-0.3,-0.3,-0.3,-0.315,-0.32,-0.31,-0.305,-0.295,-0.295,-0.3,-0.295,-0.31,-0.305,-0.305,-0.295,-0.3,-0.3,-0.3,-0.295,-0.285,-0.285,-0.29,-0.31,-0.305,-0.29,-0.285,-0.29,-0.3,-0.29,-0.3,-0.285,-0.285,-0.285,-0.285,-0.28,-0.275,-0.27,-0.25,-0.25,-0.255,-0.25,-0.23,-0.19,-0.13,-0.03,0.225,0.585,0.785,0.65,0.34,0.15,0.11,0.12,0.155,0.155,0.155,0.15,0.155,0.16,0.165,0.155,0.145,0.125,0.135,0.135,0.135,0.125,0.11,0.075,0.04,-0.02,-0.075,-0.12,-0.17,-0.23,-0.285,-0.375,-0.465,-0.48,-0.46,-0.405,-0.37,-0.365,-0.365,-0.36,-0.365,-0.375,-0.38,-0.4,-0.395,-0.38,-0.355,-0.33,-0.325,-0.32,-0.33,-0.33,-0.32,-0.325,-0.335,-0.35,-0.36,-0.35,-0.35,-0.345,-0.325,-0.325,-0.335,-0.315,-0.3,-0.285,-0.295,-0.3,-0.31,-0.295,-0.275,-0.275,-0.27,-0.285,-0.29,-0.27,-0.25,-0.265,-0.265,-0.28,-0.275,-0.275,-0.255,-0.255,-0.255,-0.26,-0.265,-0.245,-0.24,-0.235,-0.24,-0.24,-0.24,-0.225,-0.215,-0.21,-0.22,-0.205,-0.195,-0.19,-0.17,-0.175,-0.175,-0.18,-0.18,-0.145,-0.14,-0.145,-0.14,-0.14,-0.145,-0.12,-0.105,-0.11,-0.12,-0.125,-0.12,-0.115,-0.095,-0.095,-0.11,-0.11,-0.115,-0.11,-0.105,-0.105,-0.11,-0.115,-0.135,-0.125,-0.12,-0.13,-0.13,-0.145,-0.15,-0.15,-0.145,-0.15,-0.155,-0.175,-0.185,-0.17,-0.18,-0.17,-0.19,-0.19,-0.195,-0.19,-0.18,-0.19,-0.2,-0.21,-0.2,-0.195,-0.185,-0.18,-0.2,-0.21,-0.205,-0.2,-0.185,-0.2,-0.205,-0.21,-0.205,-0.205,-0.2,-0.2
-0.215,-0.21,-0.215,-0.225,-0.23,-0.245,-0.225,-0.22,-0.225,-0.23,-0.245,-0.24,-0.235,-0.225,-0.225,-0.235,-0.24,-0.25,-0.24,-0.225,-0.23,-0.24,-0.245,-0.255,-0.25,-0.245,-0.245,-0.25,-0.26,-0.265,-0.245,-0.245,-0.245,-0.245,-0.27,-0.265,-0.26,-0.255,-0.26,-0.265,-0.275,-0.285,-0.27,-0.27,-0.27,-0.275,-0.27,-0.26,-0.245,-0.23,-0.23,-0.245,-0.245,-0.24,-0.225,-0.21,-0.215,-0.22,-0.215,-0.235,-0.235,-0.225,-0.23,-0.225,-0.235,-0.24,-0.23,-0.22,-0.24,-0.24,-0.26,-0.26,-0.27,-0.265,-0.255,-0.265,-0.28,-0.265,-0.26,-0.26,-0.26,-0.265,-0.27,-0.275,-0.255,-0.25,-0.26,-0.265,-0.27,-0.265,-0.255,-0.235,-0.225,-0.22,-0.195,-0.16,-0.105,0.01,0.31,0.68,0.825,0.595,0.295,0.145,0.13,0.16,0.185,0.19,0.21,0.245,0.26,0.265,0.29,0.3,0.305,0.32,0.33,0.345,0.365,0.38,0.38,0.41,0.395,0.395,0.345,0.285,0.23,0.195,0.155,0.065,-0.035,-0.13,-0.16,-0.14,-0.13,-0.135,-0.14,-0.165,-0.17,-0.19,-0.225,-0.285,-0.32,-0.345,-0.345,-0.35,-0.36,-0.37,-0.4,-0.405,-0.395,-0.37,-0.37,-0.365,-0.395,-0.39,-0.41,-0.395,-0.4,-0.39,-0.4,-0.395,-0.38,-0.35,-0.335,-0.335,-0.34,-0.35,-0.335,-0.315,-0.325,-0.33,-0.33,-0.325,-0.315,-0.305,-0.315,-0.32,-0.32,-0.32,-0.32,-0.305,-0.295,-0.315,-0.3,-0.295,-0.28,-0.275,-0.29,-0.285,-0.3,-0.295,-0.28,-0.26,-0.27,-0.27,-0.27,-0.255,-0.24,-0.225,-0.215,-0.205,-0.21,-0.21,-0.2,-0.18,-0.165,-0.165,-0.165,-0.17,-0.15,-0.145,-0.145,-0.135,-0.145,-0.14,-0.145,-0.125,-0.13,-0.14,-0.145,-0.16,-0.15,-0.135,-0.145,-0.155,-0.165,-0.17,-0.16,-0.145,-0.16,-0.17,-0.19,-0.19,-0.18,-0.175,-0.17,-0.195,-0.21,-0.215,-0.21,-0.21,-0.22,-0.225,-0.235,-0.235,-0.22,-0.215,-0.22,-0.215,-0.22,-0.23,-0.235,-0.22,-0.23,-0.245,-0.25,-0.24,-0.23,-0.215,-0.23,-0.24,-0.245,-0.245,-0.23
-0.29,-0.3,-0.295,-0.3,-0.3,-0.305,-0.3,-0.32,-0.315,-0.315,-0.3,-0.31,-0.31,-0.325,-0.325,-0.32,-0.32,-0.31,-0.325,-0.325,-0.32,-0.315,-0.295,-0.275,-0.28,-0.28,-0.265,-0.255,-0.245,-0.24,-0.235,-0.245,-0.24,-0.235,-0.215,-0.215,-0.215,-0.23,-0.22,-0.21,-0.205,-0.215,-0.215,-0.245,-0.255,-0.25,-0.26,-0.27,-0.27,-0.27,-0.255,-0.25,-0.255,-0.26,-0.295,-0.315,-0.32,-0.325,-0.33,-0.34,-0.355,-0.38,-0.385,-0.38,-0.38,-0.395,-0.41,-0.405,-0.41,-0.405,-0.4,-0.39,-0.405,-0.42,-0.41,-0.4,-0.4,-0.395,-0.405,-0.41,-0.405,-0.4,-0.405,-0.405,-0.42,-0.445,-0.475,-0.54,-0.58,-0.59,-0.55,-0.485,-0.39,-0.21,0.09,0.47,0.85,1.19,1.51,1.75,1.85,1.8,1.585,1.14,0.62,0.13,-0.235,-0.44,-0.52,-0.525,-0.485,-0.405,-0.33,-0.295,-0.32,-0.36,-0.375,-0.375,-0.38,-0.38,-0.395,-0.42,-0.43,-0.435,-0.43,-0.435,-0.45,-0.465,-0.46,-0.45,-0.445,-0.46,-0.465,-0.485,-0.47,-0.455,-0.465,-0.46,-0.47,-0.475,-0.465,-0.475,-0.475,-0.47,-0.465,-0.485,-0.47,-0.46,-0.455,-0.44,-0.46,-0.47,-0.45,-0.43,-0.435,-0.435,-0.435,-0.44,-0.425,-0.41,-0.395,-0.39,-0.4,-0.4,-0.39,-0.37,-0.345,-0.34,-0.34,-0.345,-0.32,-0.29,-0.275,-0.26,-0.255,-0.24,-0.21,-0.185,-0.16,-0.135,-0.13,-0.125,-0.1,-0.07,-0.04,-0.04,-0.025,-0.005,0.015,0.035,0.06,0.055,0.06,0.07,0.085,0.105,0.115,0.11,0.11,0.095,0.1,0.095,0.09,0.085,0.055,0.045,0.03,0.015,-0.01,-0.03,-0.065,-0.09,-0.115,-0.13,-0.15,-0.18,-0.215,-0.24,-0.25,-0.26,-0.27,-0.275,-0.305,-0.315,-0.325,-0.315,-0.31,-0.31,-0.35,-0.345,-0.35,-0.33,-0.325,-0.33,-0.345,-0.35,-0.345,-0.35,-0.34,-0.345,-0.35,-0.355,-0.35,-0.33,-0.33,-0.33,-0.33,-0.335,-0.325,-0.32,-0.315,-0.315,-0.32,-0.33,-0.315,-0.31,-0.3,-0.3,-0.31,-0.32,-0.31,-0.305,-0.295,-0.295,-0.295
-0.37,-0.375,-0.385,-0.4,-0.38,-0.385,-0.375,-0.37,-0.39,-0.4,-0.395,-0.375,-0.38,-0.385,-0.385,-0.395,-0.4,-0.395,-0.385,-0.38,-0.385,-0.385,-0.375,-0.36,-0.355,-0.335,-0.335,-0.315,-0.31,-0.31,-0.31,-0.315,-0.305,-0.31,-0.285,-0.27,-0.265,-0.26,-0.27,-0.275,-0.265,-0.25,-0.25,-0.265,-0.275,-0.295,-0.315,-0.31,-0.315,-0.315,-0.31,-0.32,-0.31,-0.3,-0.32,-0.34,-0.355,-0.375,-0.38,-0.38,-0.39,-0.405,-0.405,-0.42,-0.43,-0.425,-0.43,-0.435,-0.45,-0.45,-0.45,-0.45,-0.435,-0.44,-0.44,-0.46,-0.455,-0.45,-0.45,-0.44,-0.45,-0.455,-0.45,-0.435,-0.435,-0.445,-0.46,-0.51,-0.57,-0.62,-0.635,-0.59,-0.535,-0.455,-0.275,0.045,0.445,0.875,1.23,1.535,1.75,1.84,1.73,1.365,0.79,0.195,-0.26,-0.485,-0.55,-0.54,-0.505,-0.42,-0.355,-0.34,-0.375,-0.395,-0.415,-0.415,-0.415,-0.405,-0.43,-0.455,-0.475,-0.495,-0.495,-0.485,-0.485,-0.485,-0.51,-0.515,-0.52,-0.5,-0.495,-0.5,-0.49,-0.51,-0.5,-0.495,-0.485,-0.495,-0.495,-0.51,-0.5,-0.49,-0.48,-0.49,-0.475,-0.495,-0.47,-0.47,-0.47,-0.46,-0.465,-0.455,-0.445,-0.435,-0.41,-0.405,-0.41,-0.41,-0.4,-0.38,-0.355,-0.34,-0.33,-0.33,-0.295,-0.275,-0.265,-0.245,-0.23,-0.215,-0.19,-0.165,-0.13,-0.1,-0.1,-0.085,-0.065,-0.05,-0.02,-0.01,-0.005,-0.005,0.025,0.03,0.07,0.07,0.06,0.055,0.07,0.075,0.075,0.06,0.045,0.015,0.015,0.01,-0.005,-0.015,-0.075,-0.095,-0.115,-0.125,-0.14,-0.165,-0.205,-0.23,-0.25,-0.26,-0.27,-0.28,-0.305,-0.32,-0.325,-0.32,-0.335,-0.33,-0.355,-0.36,-0.355,-0.345,-0.345,-0.35,-0.35,-0.355,-0.345,-0.34,-0.345,-0.345,-0.35,-0.355,-0.35,-0.34,-0.33,-0.335,-0.335,-0.345,-0.34,-0.335,-0.325,-0.33,-0.34,-0.34,-0.325,-0.33,-0.32,-0.315,-0.325,-0.335,-0.335,-0.325,-0.31,-0.31,-0.32,-0.335,-0.32,-0.32,-0.315,-0.31,-0.335,-0.325,-0.335,-0.315,-0.33
-0.395,-0.405,-0.41,-0.41,-0.405,-0.4,-0.4,-0.41,-0.41,-0.41,-0.405,-0.405,-0.405,-0.4,-0.4,-0.4,-0.385,-0.385,-0.38,-0.405,-0.405,-0.395,-0.395,-0.385,-0.365,-0.37,-0.35,-0.335,-0.33,-0.32,-0.315,-0.33,-0.335,-0.32,-0.31,-0.29,-0.29,-0.305,-0.315,-0.3,-0.28,-0.29,-0.29,-0.3,-0.32,-0.325,-0.345,-0.345,-0.34,-0.35,-0.345,-0.34,-0.32,-0.325,-0.34,-0.365,-0.385,-0.39,-0.38,-0.385,-0.395,-0.415,-0.43,-0.43,-0.445,-0.445,-0.455,-0.455,-0.455,-0.445,-0.435,-0.435,-0.45,-0.465,-0.47,-0.46,-0.45,-0.445,-0.44,-0.445,-0.455,-0.455,-0.45,-0.445,-0.45,-0.455,-0.475,-0.515,-0.57,-0.6,-0.585,-0.535,-0.47,-0.36,-0.17,0.17,0.535,0.9,1.215,1.505,1.685,1.7,1.505,1.06,0.49,-0.025,-0.365,-0.525,-0.575,-0.57,-0.48,-0.38,-0.335,-0.345,-0.395,-0.41,-0.43,-0.415,-0.42,-0.425,-0.44,-0.47,-0.475,-0.48,-0.475,-0.475,-0.48,-0.485,-0.495,-0.485,-0.485,-0.49,-0.48,-0.49,-0.485,-0.48,-0.47,-0.475,-0.485,-0.49,-0.49,-0.49,-0.475,-0.48,-0.47,-0.48,-0.49,-0.485,-0.455,-0.45,-0.45,-0.455,-0.475,-0.445,-0.435,-0.425,-0.425,-0.435,-0.43,-0.41,-0.4,-0.38,-0.375,-0.365,-0.355,-0.335,-0.315,-0.295,-0.29,-0.27,-0.26,-0.24,-0.215,-0.205,-0.18,-0.17,-0.16,-0.13,-0.105,-0.09,-0.07,-0.06,-0.055,-0.045,-0.025,0.005,0.01,0.01,0.015,0.035,0.04,0.055,0.06,0.035,0.03,0.045,0.035,0.04,0.03,0.005,-0.01,-0.03,-0.04,-0.055,-0.095,-0.105,-0.135,-0.155,-0.17,-0.175,-0.2,-0.225,-0.26,-0.265,-0.27,-0.265,-0.285,-0.3,-0.31,-0.315,-0.305,-0.3,-0.315,-0.335,-0.345,-0.325,-0.33,-0.325,-0.33,-0.345,-0.335,-0.335,-0.33,-0.335,-0.335,-0.35,-0.34,-0.335,-0.33,-0.335,-0.325,-0.33,-0.32,-0.32,-0.315,-0.32,-0.315,-0.31,-0.305,-0.3,-0.295,-0.305,-0.31,-0.295,-0.295,-0.3,-0.29,-0.285,-0.285,-0.295,-0.29,-0.285,-0.28,-0.28,-0.285
-0.355,-0.36,-0.365,-0.375,-0.37,-0.36,-0.36,-0.37,-0.375,-0.38,-0.38,-0.37,-0.365,-0.365,-0.375,-0.38,-0.38,-0.37,-0.355,-0.355,-0.375,-0.38,-0.37,-0.37,-0.355,-0.355,-0.34,-0.345,-0.33,-0.3,-0.295,-0.29,-0.3,-0.3,-0.29,-0.285,-0.27,-0.255,-0.26,-0.27,-0.275,-0.25,-0.235,-0.235,-0.25,-0.265,-0.28,-0.28,-0.29,-0.31,-0.315,-0.315,-0.3,-0.285,-0.28,-0.305,-0.315,-0.34,-0.35,-0.345,-0.355,-0.38,-0.395,-0.4,-0.385,-0.395,-0.4,-0.405,-0.42,-0.435,-0.415,-0.42,-0.425,-0.425,-0.43,-0.43,-0.43,-0.43,-0.415,-0.425,-0.435,-0.435,-0.425,-0.42,-0.425,-0.42,-0.435,-0.465,-0.505,-0.555,-0.585,-0.555,-0.495,-0.41,-0.23,0.075,0.485,0.9,1.27,1.565,1.77,1.82,1.655,1.245,0.66,0.085,-0.335,-0.54,-0.56,-0.515,-0.425,-0.35,-0.325,-0.33,-0.365,-0.39,-0.4,-0.395,-0.41,-0.42,-0.435,-0.44,-0.45,-0.455,-0.46,-0.455,-0.45,-0.46,-0.48,-0.48,-0.465,-0.465,-0.46,-0.465,-0.465,-0.47,-0.465,-0.47,-0.47,-0.47,-0.47,-0.48,-0.47,-0.45,-0.45,-0.455,-0.455,-0.455,-0.46,-0.445,-0.43,-0.435,-0.425,-0.43,-0.425,-0.405,-0.4,-0.385,-0.385,-0.375,-0.375,-0.365,-0.34,-0.335,-0.325,-0.315,-0.29,-0.265,-0.245,-0.22,-0.215,-0.21,-0.185,-0.155,-0.13,-0.11,-0.09,-0.09,-0.06,-0.025,-0.01,-0.005,0.015,0.01,0.045,0.075,0.08,0.1,0.085,0.095,0.11,0.125,0.12,0.135,0.12,0.095,0.095,0.105,0.1,0.085,0.055,0.015,0.01,-0.005,-0.02,-0.055,-0.075,-0.115,-0.125,-0.14,-0.155,-0.18,-0.21,-0.235,-0.235,-0.25,-0.25,-0.27,-0.28,-0.29,-0.315,-0.3,-0.305,-0.305,-0.315,-0.33,-0.33,-0.32,-0.325,-0.315,-0.335,-0.345,-0.33,-0.32,-0.315,-0.325,-0.33,-0.34,-0.32,-0.315,-0.305,-0.31,-0.315,-0.32,-0.3,-0.295,-0.29,-0.3,-0.31,-0.31,-0.3,-0.29,-0.29,-0.285,-0.29,-0.295,-0.285,-0.27,-0.275,-0.275,-0.28,-0.29,-0.29,-0.28,-0.28
-0.375,-0.37,-0.36,-0.345,-0.35,-0.355,-0.365,-0.38,-0.37,-0.365,-0.36,-0.37,-0.37,-0.375,-0.37,-0.37,-0.365,-0.37,-0.38,-0.38,-0.375,-0.365,-0.36,-0.365,-0.355,-0.355,-0.355,-0.335,-0.31,-0.31,-0.3,-0.295,-0.295,-0.28,-0.275,-0.27,-0.27,-0.265,-0.26,-0.255,-0.255,-0.245,-0.24,-0.255,-0.245,-0.25,-0.26,-0.275,-0.29,-0.31,-0.32,-0.305,-0.29,-0.285,-0.29,-0.305,-0.31,-0.325,-0.335,-0.335,-0.36,-0.38,-0.385,-0.38,-0.39,-0.405,-0.42,-0.43,-0.425,-0.42,-0.43,-0.425,-0.44,-0.435,-0.425,-0.43,-0.425,-0.425,-0.43,-0.44,-0.445,-0.42,-0.415,-0.425,-0.425,-0.445,-0.45,-0.48,-0.53,-0.58,-0.59,-0.565,-0.48,-0.36,-0.15,0.18,0.59,0.985,1.37,1.665,1.82,1.825,1.655,1.215,0.64,0.09,-0.28,-0.48,-0.53,-0.505,-0.425,-0.345,-0.295,-0.315,-0.37,-0.4,-0.39,-0.385,-0.385,-0.41,-0.43,-0.445,-0.445,-0.435,-0.435,-0.455,-0.465,-0.47,-0.465,-0.455,-0.455,-0.455,-0.465,-0.48,-0.475,-0.465,-0.465,-0.465,-0.46,-0.475,-0.47,-0.465,-0.45,-0.45,-0.46,-0.47,-0.455,-0.445,-0.44,-0.435,-0.435,-0.44,-0.445,-0.43,-0.41,-0.41,-0.41,-0.405,-0.4,-0.38,-0.365,-0.36,-0.355,-0.345,-0.33,-0.305,-0.3,-0.285,-0.27,-0.26,-0.23,-0.22,-0.2,-0.185,-0.16,-0.15,-0.12,-0.095,-0.075,-0.05,-0.035,-0.035,-0.005,0.025,0.035,0.05,0.045,0.06,0.07,0.09,0.105,0.115,0.12,0.11,0.12,0.12,0.13,0.13,0.105,0.085,0.09,0.08,0.06,0.035,-0.005,-0.025,-0.025,-0.045,-0.065,-0.105,-0.145,-0.165,-0.18,-0.195,-0.22,-0.24,-0.25,-0.27,-0.28,-0.28,-0.275,-0.285,-0.305,-0.32,-0.32,-0.31,-0.315,-0.31,-0.325,-0.35,-0.35,-0.33,-0.325,-0.325,-0.34,-0.345,-0.33,-0.33,-0.33,-0.32,-0.34,-0.34,-0.325,-0.305,-0.315,-0.305,-0.31,-0.315,-0.305,-0.3,-0.295,-0.3,-0.3,-0.31,-0.3,-0.29,-0.275,-0.285,-0.295,-0.3,-0.295,-0.27,-0.275,-0.275,-0.295
-0.365,-0.37,-0.365,-0.35,-0.35,-0.37,-0.37,-0.36,-0.345,-0.35,-0.36,-0.37,-0.375,-0.36,-0.36,-0.35,-0.345,-0.355,-0.35,-0.33,-0.315,-0.29,-0.29,-0.295,-0.295,-0.29,-0.27,-0.26,-0.255,-0.265,-0.27,-0.255,-0.245,-0.245,-0.25,-0.245,-0.25,-0.24,-0.24,-0.25,-0.27,-0.275,-0.295,-0.31,-0.3,-0.28,-0.28,-0.28,-0.28,-0.29,-0.3,-0.31,-0.325,-0.35,-0.35,-0.365,-0.365,-0.37,-0.38,-0.38,-0.4,-0.405,-0.415,-0.415,-0.42,-0.425,-0.445,-0.44,-0.42,-0.425,-0.425,-0.43,-0.43,-0.42,-0.41,-0.415,-0.435,-0.415,-0.42,-0.415,-0.415,-0.41,-0.41,-0.42,-0.45,-0.47,-0.53,-0.58,-0.595,-0.56,-0.515,-0.43,-0.285,-0.055,0.27,0.6,0.935,1.265,1.575,1.785,1.875,1.8,1.555,1.09,0.55,0.08,-0.27,-0.44,-0.51,-0.51,-0.485,-0.41,-0.345,-0.31,-0.325,-0.345,-0.355,-0.375,-0.375,-0.395,-0.41,-0.395,-0.4,-0.42,-0.435,-0.445,-0.455,-0.46,-0.445,-0.46,-0.45,-0.465,-0.47,-0.46,-0.44,-0.45,-0.46,-0.46,-0.485,-0.465,-0.465,-0.455,-0.46,-0.47,-0.47,-0.455,-0.46,-0.455,-0.445,-0.45,-0.465,-0.445,-0.435,-0.42,-0.43,-0.43,-0.445,-0.435,-0.415,-0.41,-0.41,-0.415,-0.405,-0.41,-0.39,-0.38,-0.365,-0.365,-0.36,-0.36,-0.325,-0.315,-0.295,-0.29,-0.29,-0.275,-0.25,-0.225,-0.205,-0.205,-0.185,-0.17,-0.14,-0.125,-0.12,-0.1,-0.095,-0.075,-0.04,-0.02,-0.005,-0.005,-0.005,0.02,0.045,0.07,0.08,0.075,0.085,0.105,0.12,0.13,0.125,0.115,0.115,0.125,0.125,0.135,0.115,0.095,0.08,0.07,0.065,0.045,0.015,0.0,-0.045,-0.04,-0.07,-0.08,-0.1,-0.14,-0.16,-0.185,-0.185,-0.195,-0.21,-0.225,-0.255,-0.245,-0.26,-0.265,-0.275,-0.285,-0.305,-0.29,-0.295,-0.285,-0.305,-0.325,-0.325,-0.33,-0.31,-0.315,-0.31,-0.325,-0.325,-0.325,-0.32,-0.325,-0.325,-0.32,-0.32,-0.31,-0.3,-0.295,-0.315,-0.3,-0.31,-0.31,-0.3,-0.29,-0.29,-0.29,-0.305
-0.36,-0.355,-0.355,-0.36,-0.375,-0.365,-0.37,-0.36,-0.355,-0.37,-0.375,-0.36,-0.36,-0.35,-0.35,-0.37,-0.375,-0.365,-0.36,-0.36,-0.36,-0.36,-0.365,-0.35,-0.325,-0.315,-0.305,-0.3,-0.305,-0.295,-0.285,-0.275,-0.285,-0.275,-0.275,-0.255,-0.24,-0.245,-0.24,-0.25,-0.245,-0.235,-0.235,-0.245,-0.255,-0.285,-0.31,-0.315,-0.31,-0.29,-0.29,-0.29,-0.305,-0.31,-0.32,-0.33,-0.35,-0.355,-0.37,-0.365,-0.37,-0.385,-0.395,-0.405,-0.41,-0.41,-0.4,-0.4,-0.41,-0.43,-0.44,-0.425,-0.43,-0.425,-0.415,-0.425,-0.42,-0.415,-0.4,-0.405,-0.41,-0.415,-0.415,-0.405,-0.4,-0.41,-0.42,-0.475,-0.53,-0.56,-0.56,-0.505,-0.44,-0.315,-0.105,0.22,0.57,0.91,1.255,1.535,1.7,1.77,1.67,1.335,0.845,0.35,-0.05,-0.33,-0.475,-0.525,-0.52,-0.455,-0.365,-0.315,-0.295,-0.345,-0.375,-0.39,-0.395,-0.375,-0.38,-0.4,-0.425,-0.43,-0.445,-0.435,-0.43,-0.43,-0.425,-0.445,-0.445,-0.455,-0.445,-0.43,-0.43,-0.45,-0.46,-0.445,-0.445,-0.435,-0.44,-0.445,-0.455,-0.45,-0.435,-0.425,-0.435,-0.445,-0.45,-0.44,-0.425,-0.42,-0.425,-0.425,-0.43,-0.415,-0.405,-0.4,-0.395,-0.4,-0.4,-0.38,-0.37,-0.37,-0.365,-0.36,-0.365,-0.34,-0.325,-0.31,-0.305,-0.3,-0.285,-0.265,-0.245,-0.225,-0.215,-0.22,-0.195,-0.165,-0.145,-0.12,-0.11,-0.11,-0.09,-0.065,-0.04,-0.02,-0.01,0.005,0.015,0.04,0.045,0.07,0.07,0.065,0.075,0.075,0.1,0.115,0.12,0.105,0.09,0.1,0.105,0.095,0.075,0.06,0.025,0.01,0.015,-0.005,-0.045,-0.08,-0.1,-0.115,-0.11,-0.135,-0.165,-0.19,-0.195,-0.2,-0.21,-0.22,-0.225,-0.255,-0.26,-0.265,-0.265,-0.27,-0.275,-0.28,-0.285,-0.29,-0.285,-0.285,-0.29,-0.3,-0.31,-0.305,-0.295,-0.29,-0.29,-0.295,-0.3,-0.3,-0.285,-0.285,-0.29,-0.3,-0.29,-0.295,-0.28,-0.28,-0.28,-0.275,-0.285,-0.275,-0.265,-0.265,-0.26,-0.26,-0.27,-0.26,-0.255
-0.32,-0.32,-0.315,-0.32,-0.33,-0.345,-0.335,-0.33,-0.325,-0.335,-0.34,-0.34,-0.33,-0.33,-0.32,-0.33,-0.33,-0.34,-0.335,-0.33,-0.325,-0.33,-0.335,-0.345,-0.33,-0.325,-0.31,-0.3,-0.28,-0.265,-0.27,-0.27,-0.25,-0.24,-0.25,-0.25,-0.245,-0.205,-0.21,-0.22,-0.23,-0.225,-0.21,-0.215,-0.21,-0.235,-0.245,-0.27,-0.255,-0.27,-0.255,-0.25,-0.26,-0.26,-0.26,-0.26,-0.275,-0.3,-0.315,-0.325,-0.33,-0.34,-0.33,-0.345,-0.365,-0.38,-0.375,-0.375,-0.385,-0.385,-0.39,-0.39,-0.395,-0.385,-0.39,-0.39,-0.395,-0.4,-0.395,-0.385,-0.38,-0.385,-0.4,-0.4,-0.395,-0.385,-0.4,-0.445,-0.52,-0.57,-0.54,-0.475,-0.38,-0.245,-0.005,0.37,0.79,1.19,1.515,1.735,1.825,1.74,1.42,0.91,0.345,-0.12,-0.395,-0.51,-0.49,-0.42,-0.325,-0.28,-0.27,-0.32,-0.35,-0.35,-0.35,-0.335,-0.365,-0.395,-0.4,-0.4,-0.395,-0.41,-0.415,-0.42,-0.43,-0.42,-0.415,-0.415,-0.425,-0.425,-0.425,-0.42,-0.405,-0.41,-0.42,-0.425,-0.425,-0.41,-0.405,-0.41,-0.41,-0.42,-0.41,-0.41,-0.385,-0.39,-0.4,-0.415,-0.395,-0.385,-0.375,-0.37,-0.37,-0.365,-0.36,-0.345,-0.33,-0.32,-0.315,-0.32,-0.29,-0.275,-0.26,-0.255,-0.245,-0.255,-0.22,-0.195,-0.16,-0.155,-0.145,-0.145,-0.11,-0.075,-0.06,-0.04,-0.03,-0.01,0.01,0.04,0.055,0.055,0.065,0.075,0.09,0.1,0.11,0.13,0.13,0.13,0.135,0.155,0.15,0.15,0.135,0.12,0.115,0.12,0.11,0.085,0.055,0.03,0.025,0.0,-0.02,-0.05,-0.08,-0.115,-0.13,-0.145,-0.145,-0.175,-0.205,-0.23,-0.235,-0.235,-0.245,-0.255,-0.27,-0.285,-0.28,-0.28,-0.285,-0.29,-0.305,-0.305,-0.3,-0.29,-0.295,-0.3,-0.3,-0.315,-0.31,-0.29,-0.3,-0.31,-0.31,-0.315,-0.31,-0.29,-0.285,-0.29,-0.295,-0.295,-0.29,-0.275,-0.26,-0.28,-0.27,-0.275,-0.265,-0.265,-0.255,-0.26,-0.275,-0.275,-0.27,-0.255,-0.25,-0.255,-0.265,-0.265,-0.265
-0.335,-0.325,-0.325,-0.33,-0.34,-0.355,-0.34,-0.335,-0.34,-0.335,-0.35,-0.345,-0.34,-0.35,-0.345,-0.34,-0.345,-0.365,-0.355,-0.345,-0.335,-0.335,-0.35,-0.35,-0.345,-0.32,-0.305,-0.3,-0.28,-0.29,-0.27,-0.26,-0.255,-0.255,-0.25,-0.26,-0.25,-0.235,-0.22,-0.24,-0.23,-0.225,-0.225,-0.22,-0.225,-0.245,-0.255,-0.275,-0.275,-0.27,-0.27,-0.26,-0.265,-0.27,-0.29,-0.295,-0.305,-0.33,-0.34,-0.36,-0.355,-0.36,-0.365,-0.375,-0.385,-0.405,-0.4,-0.395,-0.385,-0.405,-0.41,-0.415,-0.41,-0.405,-0.405,-0.405,-0.41,-0.405,-0.4,-0.39,-0.37,-0.395,-0.405,-0.405,-0.415,-0.41,-0.42,-0.455,-0.525,-0.6,-0.58,-0.525,-0.45,-0.35,-0.175,0.115,0.51,0.905,1.255,1.56,1.785,1.855,1.755,1.4,0.875,0.3,-0.155,-0.39,-0.48,-0.485,-0.455,-0.405,-0.33,-0.28,-0.295,-0.32,-0.34,-0.35,-0.375,-0.375,-0.37,-0.385,-0.39,-0.405,-0.425,-0.445,-0.43,-0.44,-0.44,-0.445,-0.44,-0.45,-0.44,-0.43,-0.435,-0.435,-0.44,-0.455,-0.44,-0.43,-0.425,-0.435,-0.43,-0.435,-0.43,-0.415,-0.41,-0.405,-0.41,-0.43,-0.42,-0.41,-0.39,-0.395,-0.385,-0.385,-0.375,-0.375,-0.355,-0.36,-0.355,-0.36,-0.345,-0.33,-0.315,-0.31,-0.305,-0.29,-0.275,-0.25,-0.235,-0.22,-0.215,-0.2,-0.17,-0.14,-0.13,-0.11,-0.095,-0.075,-0.06,-0.03,-0.01,0.0,0.015,0.025,0.05,0.06,0.095,0.1,0.105,0.115,0.135,0.15,0.15,0.165,0.165,0.16,0.165,0.17,0.16,0.165,0.15,0.12,0.125,0.11,0.1,0.07,0.04,0.015,0.0,-0.02,-0.04,-0.07,-0.1,-0.13,-0.145,-0.155,-0.16,-0.18,-0.205,-0.23,-0.22,-0.23,-0.245,-0.255,-0.26,-0.265,-0.26,-0.265,-0.27,-0.275,-0.28,-0.28,-0.275,-0.27,-0.27,-0.285,-0.275,-0.28,-0.275,-0.275,-0.27,-0.275,-0.285,-0.28,-0.265,-0.245,-0.245,-0.245,-0.245,-0.255,-0.255,-0.25,-0.23,-0.24,-0.23,-0.25,-0.23,-0.23,-0.215,-0.22,-0.225,-0.25,-0.23
-0.145,-0.15,-0.15,-0.17,-0.155,-0.145,-0.135,-0.15,-0.16,-0.155,-0.16,-0.135,-0.145,-0.15,-0.165,-0.155,-0.14,-0.135,-0.155,-0.15,-0.165,-0.165,-0.16,-0.15,-0.15,-0.15,-0.15,-0.175,-0.165,-0.155,-0.16,-0.17,-0.175,-0.185,-0.16,-0.16,-0.165,-0.18,-0.19,-0.195,-0.18,-0.18,-0.185,-0.195,-0.21,-0.205,-0.2,-0.2,-0.205,-0.22,-0.24,-0.23,-0.22,-0.215,-0.225,-0.225,-0.245,-0.235,-0.23,-0.215,-0.215,-0.235,-0.245,-0.235,-0.23,-0.225,-0.235,-0.25,-0.26,-0.25,-0.245,-0.23,-0.245,-0.25,-0.25,-0.255,-0.25,-0.245,-0.26,-0.25,-0.28,-0.26,-0.255,-0.255,-0.255,-0.25,-0.27,-0.26,-0.255,-0.24,-0.235,-0.23,-0.21,-0.205,-0.135,-0.04,0.205,0.63,0.845,0.63,0.26,0.06,0.045,0.05,0.03,0.005,-0.01,-0.04,-0.035,-0.04,-0.05,-0.045,-0.06,-0.055,-0.07,-0.09,-0.115,-0.12,-0.13,-0.135,-0.17,-0.22,-0.265,-0.3,-0.33,-0.35,-0.4,-0.465,-0.565,-0.63,-0.67,-0.71,-0.75,-0.81,-0.87,-0.905,-0.92,-0.925,-0.93,-0.935,-0.945,-0.935,-0.915,-0.905,-0.895,-0.905,-0.91,-0.88,-0.865,-0.84,-0.8,-0.75,-0.705,-0.66,-0.61,-0.565,-0.52,-0.48,-0.455,-0.405,-0.385,-0.35,-0.33,-0.325,-0.325,-0.32,-0.295,-0.285,-0.275,-0.265,-0.26,-0.255,-0.26,-0.27,-0.26,-0.265,-0.265,-0.265,-0.245,-0.23,-0.2,-0.2,-0.2,-0.185,-0.175,-0.155,-0.16,-0.145,-0.15,-0.145,-0.135,-0.13,-0.125,-0.125,-0.135,-0.125,-0.12,-0.105,-0.105,-0.11,-0.115,-0.11,-0.095,-0.09,-0.09,-0.09,-0.095,-0.1,-0.085,-0.065,-0.07,-0.095,-0.08,-0.085,-0.08,-0.06,-0.05,-0.07,-0.07,-0.07,-0.06,-0.045,-0.055,-0.055,-0.055,-0.05,-0.045,-0.025,-0.03,-0.03,-0.05,-0.04,-0.03,-0.005,0.0,-0.005,-0.02,-0.015,0.0,0.01,0.005,0.01,0.0,-0.005,0.015,0.015,0.015,0.005,0.0,-0.005,-0.005,0.005,0.0,-0.015,-0.03,-0.035,-0.035,-0.035,-0.04,-0.06,-0.08,-0.08,-0.08,-0.075,-0.09
-0.205,-0.21,-0.225,-0.235,-0.24,-0.23,-0.225,-0.23,-0.245,-0.235,-0.245,-0.235,-0.235,-0.23,-0.24,-0.26,-0.26,-0.26,-0.25,-0.265,-0.27,-0.28,-0.265,-0.26,-0.255,-0.265,-0.275,-0.285,-0.285,-0.275,-0.265,-0.27,-0.275,-0.29,-0.285,-0.29,-0.275,-0.27,-0.285,-0.31,-0.305,-0.31,-0.295,-0.295,-0.295,-0.31,-0.305,-0.3,-0.295,-0.3,-0.315,-0.32,-0.31,-0.305,-0.305,-0.315,-0.32,-0.335,-0.325,-0.315,-0.315,-0.305,-0.315,-0.32,-0.32,-0.31,-0.31,-0.325,-0.315,-0.32,-0.32,-0.33,-0.31,-0.305,-0.32,-0.325,-0.32,-0.31,-0.305,-0.315,-0.325,-0.33,-0.32,-0.31,-0.305,-0.295,-0.295,-0.305,-0.3,-0.275,-0.27,-0.27,-0.26,-0.24,-0.165,-0.005,0.32,0.77,0.905,0.565,0.16,-0.015,-0.005,0.015,-0.025,-0.075,-0.085,-0.085,-0.08,-0.085,-0.08,-0.095,-0.105,-0.11,-0.13,-0.145,-0.185,-0.195,-0.21,-0.235,-0.265,-0.305,-0.36,-0.41,-0.46,-0.51,-0.595,-0.695,-0.765,-0.83,-0.865,-0.92,-0.965,-0.995,-1.015,-1.045,-1.05,-1.035,-1.025,-1.045,-1.045,-1.04,-1.02,-1.005,-0.97,-0.93,-0.91,-0.87,-0.805,-0.735,-0.685,-0.63,-0.585,-0.545,-0.495,-0.46,-0.425,-0.4,-0.385,-0.385,-0.375,-0.345,-0.335,-0.315,-0.31,-0.325,-0.31,-0.295,-0.285,-0.29,-0.285,-0.28,-0.27,-0.225,-0.185,-0.18,-0.175,-0.175,-0.17,-0.135,-0.11,-0.09,-0.08,-0.085,-0.06,-0.065,-0.07,-0.08,-0.095,-0.105,-0.1,-0.105,-0.09,-0.09,-0.095,-0.1,-0.1,-0.08,-0.07,-0.075,-0.09,-0.1,-0.095,-0.085,-0.06,-0.05,-0.06,-0.055,-0.04,-0.03,-0.02,-0.015,-0.04,-0.05,-0.045,-0.03,-0.005,-0.005,-0.025,-0.03,-0.005,0.0,0.0,0.015,0.01,-0.005,0.02,0.03,0.03,0.06,0.065,0.03,0.045,0.055,0.05,0.05,0.045,0.025,0.03,0.035,0.035,0.03,0.01,0.0,-0.015,0.005,-0.005,-0.02,-0.03,-0.055,-0.05,-0.065,-0.07,-0.095,-0.11,-0.125,-0.12,-0.13,-0.11,-0.115,-0.125,-0.155,-0.16,-0.17,-0.175
-0.255,-0.24,-0.235,-0.245,-0.25,-0.265,-0.26,-0.275,-0.265,-0.255,-0.255,-0.275,-0.255,-0.255,-0.26,-0.26,-0.27,-0.27,-0.27,-0.26,-0.265,-0.275,-0.28,-0.3,-0.29,-0.29,-0.285,-0.285,-0.3,-0.32,-0.295,-0.29,-0.29,-0.3,-0.315,-0.32,-0.315,-0.31,-0.305,-0.305,-0.32,-0.32,-0.32,-0.305,-0.3,-0.305,-0.315,-0.32,-0.325,-0.335,-0.33,-0.33,-0.32,-0.33,-0.33,-0.315,-0.325,-0.325,-0.33,-0.335,-0.325,-0.315,-0.31,-0.315,-0.325,-0.345,-0.35,-0.34,-0.33,-0.325,-0.325,-0.33,-0.34,-0.335,-0.325,-0.325,-0.325,-0.335,-0.34,-0.33,-0.32,-0.31,-0.32,-0.335,-0.33,-0.32,-0.315,-0.29,-0.31,-0.315,-0.3,-0.28,-0.27,-0.255,-0.225,-0.165,0.02,0.445,0.8,0.66,0.245,-0.02,-0.055,-0.015,0.0,-0.03,-0.05,-0.08,-0.08,-0.07,-0.05,-0.065,-0.07,-0.095,-0.095,-0.105,-0.105,-0.1,-0.14,-0.175,-0.21,-0.245,-0.28,-0.325,-0.385,-0.475,-0.565,-0.65,-0.7,-0.75,-0.825,-0.895,-0.945,-0.97,-0.99,-0.995,-1.01,-1.035,-1.03,-1.04,-1.005,-1.01,-0.99,-0.985,-0.95,-0.895,-0.83,-0.755,-0.725,-0.685,-0.635,-0.56,-0.515,-0.455,-0.44,-0.415,-0.39,-0.365,-0.345,-0.34,-0.325,-0.33,-0.3,-0.305,-0.295,-0.29,-0.305,-0.315,-0.31,-0.3,-0.29,-0.27,-0.255,-0.25,-0.22,-0.215,-0.2,-0.19,-0.175,-0.195,-0.17,-0.165,-0.16,-0.15,-0.165,-0.165,-0.15,-0.145,-0.135,-0.14,-0.135,-0.15,-0.135,-0.11,-0.11,-0.105,-0.11,-0.125,-0.105,-0.1,-0.095,-0.1,-0.11,-0.105,-0.1,-0.085,-0.07,-0.08,-0.085,-0.08,-0.07,-0.05,-0.045,-0.06,-0.06,-0.07,-0.05,-0.035,-0.035,-0.04,-0.055,-0.035,-0.03,-0.015,-0.005,-0.005,-0.005,0.005,0.015,0.025,0.04,0.025,0.025,0.04,0.05,0.065,0.07,0.07,0.065,0.07,0.085,0.1,0.11,0.1,0.08,0.085,0.075,0.06,0.035,0.015,0.0,-0.01,-0.005,-0.02,-0.03,-0.05,-0.08,-0.085,-0.08,-0.065,-0.08,-0.095,-0.105,-0.115,-0.11
-0.19,-0.19,-0.175,-0.175,-0.19,-0.2,-0.19,-0.19,-0.195,-0.195,-0.205,-0.21,-0.195,-0.2,-0.18,-0.185,-0.19,-0.2,-0.2,-0.2,-0.185,-0.21,-0.21,-0.215,-0.21,-0.21,-0.21,-0.215,-0.21,-0.24,-0.23,-0.215,-0.215,-0.22,-0.23,-0.24,-0.24,-0.24,-0.225,-0.225,-0.24,-0.245,-0.245,-0.245,-0.24,-0.24,-0.255,-0.255,-0.255,-0.25,-0.24,-0.24,-0.25,-0.255,-0.26,-0.245,-0.245,-0.255,-0.265,-0.265,-0.265,-0.26,-0.255,-0.25,-0.26,-0.285,-0.27,-0.265,-0.27,-0.26,-0.27,-0.275,-0.275,-0.26,-0.26,-0.265,-0.27,-0.275,-0.27,-0.275,-0.26,-0.26,-0.275,-0.28,-0.28,-0.265,-0.255,-0.25,-0.26,-0.26,-0.255,-0.24,-0.215,-0.195,-0.15,-0.04,0.31,0.79,0.88,0.48,0.095,-0.025,0.005,0.025,0.025,0.0,-0.035,-0.05,-0.045,-0.045,-0.04,-0.05,-0.085,-0.095,-0.11,-0.12,-0.13,-0.16,-0.215,-0.27,-0.315,-0.345,-0.4,-0.475,-0.57,-0.66,-0.72,-0.765,-0.82,-0.885,-0.945,-0.975,-0.985,-1.005,-0.99,-1.0,-1.005,-1.015,-1.005,-0.99,-0.96,-0.93,-0.895,-0.84,-0.775,-0.705,-0.65,-0.59,-0.55,-0.51,-0.475,-0.43,-0.395,-0.375,-0.37,-0.375,-0.365,-0.345,-0.32,-0.3,-0.295,-0.3,-0.305,-0.295,-0.28,-0.275,-0.28,-0.28,-0.275,-0.245,-0.215,-0.205,-0.21,-0.225,-0.21,-0.19,-0.165,-0.16,-0.165,-0.17,-0.155,-0.16,-0.145,-0.145,-0.16,-0.155,-0.145,-0.125,-0.125,-0.12,-0.12,-0.13,-0.115,-0.105,-0.105,-0.1,-0.105,-0.11,-0.11,-0.085,-0.075,-0.09,-0.07,-0.09,-0.07,-0.065,-0.05,-0.06,-0.055,-0.055,-0.05,-0.03,-0.03,-0.015,-0.01,-0.02,-0.015,-0.005,0.005,0.005,0.005,0.005,0.01,0.025,0.045,0.04,0.035,0.045,0.035,0.05,0.045,0.06,0.055,0.03,0.04,0.045,0.06,0.055,0.03,0.025,0.025,0.03,0.025,0.005,0.0,-0.02,-0.015,-0.01,-0.02,-0.025,-0.05,-0.055,-0.06,-0.065,-0.07,-0.075,-0.085,-0.11,-0.11,-0.105,-0.105,-0.12,-0.135,-0.145,-0.145
-0.2,-0.19,-0.18,-0.175,-0.185,-0.2,-0.195,-0.18,-0.185,-0.185,-0.195,-0.185,-0.175,-0.165,-0.145,-0.155,-0.16,-0.15,-0.155,-0.155,-0.155,-0.19,-0.21,-0.215,-0.215,-0.21,-0.215,-0.235,-0.25,-0.255,-0.245,-0.255,-0.25,-0.26,-0.28,-0.27,-0.275,-0.27,-0.27,-0.28,-0.305,-0.285,-0.29,-0.265,-0.28,-0.295,-0.305,-0.3,-0.28,-0.29,-0.28,-0.29,-0.3,-0.295,-0.29,-0.28,-0.285,-0.295,-0.295,-0.29,-0.29,-0.28,-0.275,-0.29,-0.285,-0.29,-0.275,-0.285,-0.285,-0.285,-0.295,-0.295,-0.285,-0.27,-0.265,-0.275,-0.28,-0.285,-0.265,-0.25,-0.25,-0.235,-0.245,-0.22,-0.18,-0.11,0.095,0.555,0.955,0.87,0.525,0.365,0.43,0.53,0.62,0.72,0.875,1.06,1.24,1.375,1.425,1.385,1.21,0.975,0.71,0.48,0.265,0.05,-0.145,-0.305,-0.395,-0.435,-0.45,-0.455,-0.44,-0.435,-0.42,-0.425,-0.435,-0.42,-0.42,-0.405,-0.41,-0.43,-0.43,-0.43,-0.425,-0.425,-0.43,-0.45,-0.465,-0.46,-0.45,-0.44,-0.445,-0.455,-0.48,-0.465,-0.46,-0.46,-0.46,-0.48,-0.5,-0.5,-0.49,-0.505,-0.495,-0.5,-0.525,-0.505,-0.51,-0.51,-0.53,-0.535,-0.55,-0.545,-0.535,-0.545,-0.54,-0.55,-0.57,-0.565,-0.55,-0.545,-0.555,-0.58,-0.58,-0.59,-0.575,-0.575,-0.57,-0.585,-0.6,-0.58,-0.585,-0.58,-0.59,-0.59,-0.6,-0.585,-0.57,-0.565,-0.565,-0.57,-0.585,-0.565,-0.56,-0.545,-0.54,-0.555,-0.545,-0.535,-0.51,-0.495,-0.495,-0.49,-0.49,-0.465,-0.455,-0.44,-0.445,-0.435,-0.425,-0.395,-0.39,-0.375,-0.36,-0.345,-0.345,-0.33,-0.31,-0.3,-0.29,-0.295,-0.3,-0.28,-0.27,-0.265,-0.265,-0.265,-0.26,-0.265,-0.26,-0.255,-0.255,-0.25,-0.26,-0.255,-0.26,-0.25,-0.255,-0.255,-0.265,-0.255,-0.245,-0.25,-0.255,-0.27,-0.27,-0.27,-0.265,-0.26,-0.26,-0.275,-0.285,-0.295,-0.285,-0.265,-0.27,-0.275,-0.3,-0.28,-0.28,-0.275,-0.285,-0.3,-0.3,-0.305,-0.305,-0.295,-0.285,-0.305,-0.31,-0.31,-0.305
-0.3,-0.305,-0.32,-0.31,-0.31,-0.29,-0.285,-0.305,-0.305,-0.31,-0.3,-0.295,-0.29,-0.305,-0.305,-0.3,-0.285,-0.29,-0.29,-0.295,-0.31,-0.3,-0.3,-0.28,-0.27,-0.29,-0.29,-0.295,-0.285,-0.27,-0.29,-0.3,-0.29,-0.29,-0.28,-0.275,-0.275,-0.28,-0.29,-0.285,-0.275,-0.27,-0.275,-0.285,-0.295,-0.29,-0.295,-0.29,-0.28,-0.29,-0.31,-0.3,-0.29,-0.28,-0.28,-0.29,-0.295,-0.28,-0.265,-0.26,-0.255,-0.25,-0.27,-0.265,-0.25,-0.25,-0.245,-0.245,-0.255,-0.25,-0.225,-0.21,-0.2,-0.205,-0.22,-0.21,-0.2,-0.2,-0.215,-0.245,-0.245,-0.25,-0.25,-0.245,-0.23,-0.25,-0.26,-0.265,-0.27,-0.25,-0.25,-0.245,-0.245,-0.22,-0.19,-0.145,-0.05,0.17,0.57,0.91,0.77,0.365,0.095,0.025,0.045,0.045,0.02,0.015,0.0,-0.01,-0.04,-0.03,-0.01,-0.005,-0.025,-0.03,-0.05,-0.055,-0.065,-0.06,-0.075,-0.09,-0.13,-0.145,-0.175,-0.22,-0.26,-0.295,-0.36,-0.43,-0.51,-0.565,-0.6,-0.615,-0.655,-0.675,-0.71,-0.72,-0.735,-0.735,-0.75,-0.71,-0.66,-0.595,-0.535,-0.455,-0.415,-0.35,-0.32,-0.305,-0.335,-0.36,-0.405,-0.435,-0.45,-0.46,-0.485,-0.49,-0.495,-0.47,-0.42,-0.395,-0.36,-0.34,-0.335,-0.31,-0.315,-0.3,-0.29,-0.29,-0.295,-0.265,-0.265,-0.24,-0.22,-0.22,-0.22,-0.225,-0.205,-0.205,-0.2,-0.195,-0.2,-0.195,-0.185,-0.18,-0.175,-0.18,-0.185,-0.175,-0.165,-0.165,-0.165,-0.175,-0.18,-0.175,-0.16,-0.155,-0.16,-0.15,-0.165,-0.145,-0.13,-0.12,-0.125,-0.135,-0.145,-0.135,-0.12,-0.1,-0.11,-0.11,-0.115,-0.105,-0.09,-0.08,-0.09,-0.095,-0.1,-0.09,-0.085,-0.08,-0.075,-0.08,-0.075,-0.08,-0.07,-0.05,-0.05,-0.06,-0.065,-0.05,-0.045,-0.015,-0.02,-0.03,-0.03,-0.025,0.0,0.0,0.0,-0.01,-0.015,-0.015,-0.01,0.01,0.01,0.01,0.005,0.005,0.01,0.005,0.015,-0.005,-0.01,-0.01,-0.005,-0.015,-0.015,-0.025,-0.045,-0.04,-0.04,-0.05,-0.055
-0.235,-0.245,-0.25,-0.235,-0.22,-0.21,-0.22,-0.23,-0.245,-0.24,-0.24,-0.245,-0.25,-0.26,-0.255,-0.255,-0.245,-0.245,-0.25,-0.25,-0.24,-0.23,-0.22,-0.23,-0.24,-0.255,-0.255,-0.24,-0.24,-0.235,-0.25,-0.265,-0.255,-0.26,-0.245,-0.25,-0.26,-0.27,-0.26,-0.25,-0.25,-0.26,-0.26,-0.255,-0.25,-0.25,-0.24,-0.245,-0.255,-0.26,-0.26,-0.255,-0.26,-0.26,-0.275,-0.275,-0.27,-0.255,-0.265,-0.26,-0.275,-0.305,-0.29,-0.285,-0.275,-0.275,-0.28,-0.29,-0.285,-0.28,-0.275,-0.265,-0.285,-0.3,-0.28,-0.28,-0.275,-0.275,-0.285,-0.29,-0.285,-0.27,-0.26,-0.275,-0.28,-0.295,-0.295,-0.285,-0.275,-0.285,-0.265,-0.27,-0.245,-0.22,-0.18,-0.105,0.07,0.48,0.885,0.77,0.35,0.05,-0.025,0.0,0.015,0.0,-0.025,-0.03,-0.04,-0.06,-0.055,-0.045,-0.06,-0.075,-0.08,-0.08,-0.07,-0.06,-0.05,-0.09,-0.14,-0.21,-0.265,-0.32,-0.385,-0.485,-0.6,-0.695,-0.755,-0.785,-0.85,-0.915,-0.99,-1.05,-1.075,-1.065,-1.07,-1.075,-1.105,-1.1,-1.07,-1.045,-1.02,-1.0,-0.99,-0.97,-0.93,-0.87,-0.815,-0.77,-0.75,-0.715,-0.66,-0.605,-0.545,-0.495,-0.475,-0.46,-0.425,-0.405,-0.38,-0.375,-0.375,-0.355,-0.335,-0.31,-0.305,-0.29,-0.315,-0.335,-0.335,-0.325,-0.325,-0.325,-0.315,-0.295,-0.265,-0.25,-0.225,-0.23,-0.23,-0.225,-0.21,-0.185,-0.17,-0.175,-0.175,-0.165,-0.155,-0.14,-0.145,-0.14,-0.14,-0.145,-0.13,-0.11,-0.095,-0.11,-0.105,-0.115,-0.105,-0.095,-0.085,-0.09,-0.08,-0.09,-0.085,-0.075,-0.065,-0.06,-0.08,-0.075,-0.075,-0.065,-0.06,-0.06,-0.05,-0.07,-0.07,-0.055,-0.05,-0.05,-0.04,-0.045,-0.035,-0.02,-0.02,-0.025,-0.02,-0.025,-0.015,-0.015,-0.01,-0.005,-0.01,-0.02,-0.025,-0.005,0.0,0.01,-0.005,-0.015,0.0,0.0,0.005,-0.005,0.0,-0.01,-0.01,0.0,-0.005,-0.01,-0.025,-0.025,-0.015,-0.02,-0.015,-0.035,-0.05,-0.055,-0.065,-0.07,-0.075,-0.075,-0.09
-0.215,-0.205,-0.225,-0.215,-0.205,-0.2,-0.205,-0.21,-0.215,-0.22,-0.2,-0.2,-0.21,-0.215,-0.225,-0.22,-0.205,-0.21,-0.205,-0.215,-0.225,-0.22,-0.22,-0.22,-0.23,-0.23,-0.245,-0.23,-0.225,-0.22,-0.225,-0.23,-0.255,-0.245,-0.24,-0.24,-0.24,-0.25,-0.26,-0.26,-0.255,-0.25,-0.255,-0.255,-0.27,-0.275,-0.265,-0.255,-0.255,-0.28,-0.305,-0.28,-0.27,-0.28,-0.28,-0.285,-0.29,-0.285,-0.275,-0.28,-0.28,-0.285,-0.295,-0.3,-0.28,-0.29,-0.29,-0.29,-0.315,-0.3,-0.29,-0.29,-0.29,-0.3,-0.315,-0.3,-0.29,-0.295,-0.28,-0.29,-0.305,-0.305,-0.3,-0.285,-0.29,-0.295,-0.31,-0.295,-0.285,-0.285,-0.275,-0.28,-0.28,-0.24,-0.19,-0.1,0.185,0.65,0.825,0.51,0.135,-0.02,-0.015,0.015,-0.015,-0.035,-0.04,-0.04,-0.04,-0.04,-0.055,-0.055,-0.065,-0.055,-0.075,-0.095,-0.13,-0.165,-0.195,-0.235,-0.28,-0.33,-0.4,-0.475,-0.57,-0.63,-0.685,-0.735,-0.815,-0.875,-0.925,-0.96,-0.98,-1.02,-1.035,-1.04,-1.05,-1.04,-1.035,-1.04,-1.04,-1.015,-0.975,-0.93,-0.89,-0.835,-0.78,-0.72,-0.65,-0.595,-0.54,-0.505,-0.455,-0.42,-0.38,-0.345,-0.335,-0.325,-0.315,-0.29,-0.255,-0.24,-0.225,-0.235,-0.235,-0.245,-0.24,-0.255,-0.27,-0.27,-0.275,-0.26,-0.245,-0.23,-0.22,-0.215,-0.22,-0.2,-0.195,-0.185,-0.18,-0.18,-0.18,-0.175,-0.165,-0.16,-0.155,-0.15,-0.16,-0.155,-0.145,-0.13,-0.14,-0.14,-0.15,-0.145,-0.13,-0.125,-0.125,-0.125,-0.135,-0.13,-0.11,-0.1,-0.115,-0.12,-0.12,-0.11,-0.085,-0.095,-0.095,-0.09,-0.095,-0.075,-0.075,-0.07,-0.055,-0.075,-0.075,-0.06,-0.055,-0.055,-0.05,-0.06,-0.065,-0.055,-0.04,-0.035,-0.04,-0.035,-0.03,-0.02,-0.005,-0.015,0.0,-0.005,-0.01,0.005,-0.005,0.0,0.015,0.005,0.0,-0.005,0.005,0.01,0.0,-0.015,-0.02,-0.025,-0.015,-0.035,-0.04,-0.055,-0.07,-0.06,-0.07,-0.075,-0.08,-0.095,-0.105,-0.105,-0.11,-0.115,-0.13
-0.26,-0.27,-0.26,-0.25,-0.255,-0.265,-0.27,-0.27,-0.265,-0.26,-0.27,-0.275,-0.29,-0.29,-0.275,-0.285,-0.295,-0.29,-0.29,-0.305,-0.285,-0.28,-0.3,-0.31,-0.315,-0.31,-0.31,-0.31,-0.32,-0.32,-0.32,-0.325,-0.31,-0.31,-0.32,-0.33,-0.335,-0.345,-0.34,-0.34,-0.325,-0.35,-0.35,-0.34,-0.33,-0.34,-0.345,-0.36,-0.37,-0.36,-0.35,-0.35,-0.36,-0.37,-0.39,-0.375,-0.355,-0.365,-0.365,-0.375,-0.385,-0.385,-0.38,-0.365,-0.375,-0.385,-0.39,-0.38,-0.37,-0.365,-0.38,-0.385,-0.395,-0.385,-0.38,-0.38,-0.37,-0.39,-0.39,-0.385,-0.37,-0.37,-0.37,-0.37,-0.38,-0.36,-0.365,-0.36,-0.36,-0.365,-0.35,-0.34,-0.31,-0.28,-0.245,-0.155,0.06,0.505,0.88,0.75,0.315,0.01,-0.07,-0.05,-0.035,-0.065,-0.095,-0.12,-0.125,-0.12,-0.125,-0.115,-0.125,-0.145,-0.16,-0.17,-0.16,-0.17,-0.2,-0.225,-0.27,-0.31,-0.335,-0.37,-0.405,-0.445,-0.515,-0.58,-0.665,-0.715,-0.78,-0.83,-0.9,-0.945,-0.99,-1.02,-1.045,-1.065,-1.085,-1.085,-1.07,-1.075,-1.075,-1.08,-1.085,-1.065,-1.045,-1.01,-0.985,-0.94,-0.9,-0.815,-0.77,-0.72,-0.68,-0.635,-0.595,-0.535,-0.5,-0.465,-0.455,-0.44,-0.44,-0.415,-0.41,-0.395,-0.395,-0.385,-0.375,-0.365,-0.34,-0.34,-0.35,-0.36,-0.36,-0.35,-0.33,-0.325,-0.32,-0.325,-0.31,-0.295,-0.28,-0.275,-0.285,-0.265,-0.265,-0.255,-0.24,-0.23,-0.25,-0.25,-0.245,-0.24,-0.23,-0.22,-0.22,-0.22,-0.225,-0.205,-0.185,-0.175,-0.17,-0.18,-0.18,-0.17,-0.145,-0.15,-0.145,-0.155,-0.16,-0.125,-0.11,-0.095,-0.085,-0.08,-0.08,-0.07,-0.07,-0.07,-0.065,-0.09,-0.1,-0.085,-0.095,-0.08,-0.09,-0.1,-0.11,-0.1,-0.095,-0.095,-0.085,-0.095,-0.095,-0.085,-0.075,-0.07,-0.08,-0.07,-0.08,-0.06,-0.045,-0.035,-0.05,-0.06,-0.055,-0.05,-0.045,-0.045,-0.055,-0.065,-0.075,-0.06,-0.065,-0.065,-0.08,-0.09,-0.12,-0.105,-0.1,-0.115,-0.125,-0.14,-0.165
-0.325,-0.335,-0.34,-0.345,-0.33,-0.335,-0.325,-0.325,-0.335,-0.34,-0.325,-0.325,-0.32,-0.325,-0.33,-0.345,-0.325,-0.325,-0.325,-0.32,-0.325,-0.33,-0.335,-0.305,-0.31,-0.295,-0.285,-0.29,-0.245,-0.23,-0.21,-0.23,-0.245,-0.245,-0.225,-0.19,-0.155,-0.145,-0.15,-0.155,-0.15,-0.14,-0.13,-0.12,-0.125,-0.14,-0.145,-0.15,-0.155,-0.15,-0.175,-0.2,-0.24,-0.28,-0.325,-0.36,-0.38,-0.39,-0.38,-0.38,-0.37,-0.38,-0.395,-0.415,-0.395,-0.395,-0.38,-0.37,-0.375,-0.39,-0.385,-0.38,-0.365,-0.375,-0.37,-0.4,-0.385,-0.37,-0.375,-0.37,-0.37,-0.36,-0.355,-0.355,-0.365,-0.37,-0.37,-0.355,-0.3,-0.21,-0.085,0.05,0.235,0.4,0.59,0.775,0.915,1.025,1.1,1.16,1.18,1.09,0.96,0.825,0.71,0.575,0.41,0.255,0.145,0.095,0.005,-0.105,-0.195,-0.245,-0.285,-0.325,-0.375,-0.43,-0.47,-0.495,-0.505,-0.52,-0.55,-0.56,-0.55,-0.54,-0.52,-0.54,-0.54,-0.55,-0.545,-0.53,-0.515,-0.53,-0.53,-0.535,-0.545,-0.525,-0.515,-0.51,-0.525,-0.535,-0.52,-0.51,-0.505,-0.51,-0.525,-0.535,-0.535,-0.515,-0.51,-0.515,-0.52,-0.53,-0.545,-0.535,-0.525,-0.515,-0.53,-0.535,-0.53,-0.515,-0.52,-0.53,-0.525,-0.515,-0.52,-0.495,-0.48,-0.49,-0.485,-0.495,-0.47,-0.47,-0.45,-0.445,-0.43,-0.435,-0.42,-0.4,-0.375,-0.37,-0.36,-0.35,-0.33,-0.3,-0.26,-0.25,-0.24,-0.235,-0.23,-0.21,-0.205,-0.18,-0.175,-0.185,-0.17,-0.165,-0.16,-0.155,-0.17,-0.17,-0.175,-0.175,-0.185,-0.185,-0.195,-0.2,-0.215,-0.22,-0.215,-0.23,-0.265,-0.28,-0.265,-0.26,-0.265,-0.255,-0.28,-0.31,-0.305,-0.29,-0.285,-0.3,-0.285,-0.29,-0.29,-0.29,-0.295,-0.295,-0.31,-0.31,-0.31,-0.315,-0.315,-0.315,-0.325,-0.33,-0.325,-0.31,-0.315,-0.32,-0.325,-0.36,-0.335,-0.32,-0.31,-0.32,-0.32,-0.33,-0.33,-0.31,-0.29,-0.3,-0.325,-0.33,-0.345,-0.325,-0.32,-0.32,-0.31,-0.315,-0.32,-0.32,-0.315
-0.32,-0.32,-0.315,-0.31,-0.33,-0.34,-0.335,-0.325,-0.32,-0.32,-0.325,-0.345,-0.335,-0.32,-0.32,-0.32,-0.33,-0.36,-0.345,-0.32,-0.32,-0.33,-0.34,-0.355,-0.345,-0.33,-0.305,-0.3,-0.295,-0.305,-0.285,-0.245,-0.225,-0.225,-0.245,-0.26,-0.25,-0.22,-0.205,-0.175,-0.18,-0.175,-0.17,-0.145,-0.12,-0.145,-0.15,-0.165,-0.17,-0.165,-0.17,-0.185,-0.205,-0.24,-0.27,-0.325,-0.36,-0.39,-0.395,-0.405,-0.405,-0.415,-0.41,-0.4,-0.41,-0.42,-0.42,-0.4,-0.395,-0.395,-0.4,-0.39,-0.39,-0.385,-0.38,-0.39,-0.4,-0.395,-0.385,-0.375,-0.37,-0.365,-0.385,-0.39,-0.385,-0.39,-0.39,-0.385,-0.37,-0.33,-0.225,-0.09,0.09,0.27,0.46,0.64,0.83,0.98,1.085,1.175,1.175,1.065,0.91,0.78,0.66,0.53,0.385,0.245,0.175,0.155,0.095,0.0,-0.115,-0.19,-0.25,-0.295,-0.35,-0.415,-0.455,-0.49,-0.495,-0.495,-0.51,-0.52,-0.54,-0.56,-0.55,-0.54,-0.52,-0.515,-0.52,-0.53,-0.525,-0.495,-0.475,-0.485,-0.495,-0.51,-0.515,-0.505,-0.495,-0.5,-0.49,-0.495,-0.49,-0.49,-0.485,-0.5,-0.505,-0.515,-0.515,-0.51,-0.505,-0.505,-0.5,-0.505,-0.51,-0.5,-0.5,-0.5,-0.505,-0.525,-0.515,-0.515,-0.515,-0.495,-0.5,-0.51,-0.495,-0.49,-0.47,-0.475,-0.48,-0.475,-0.45,-0.44,-0.415,-0.41,-0.42,-0.4,-0.385,-0.345,-0.325,-0.32,-0.335,-0.325,-0.305,-0.285,-0.255,-0.24,-0.235,-0.235,-0.23,-0.205,-0.19,-0.2,-0.2,-0.22,-0.205,-0.22,-0.205,-0.215,-0.245,-0.26,-0.25,-0.255,-0.25,-0.265,-0.28,-0.3,-0.295,-0.3,-0.3,-0.305,-0.31,-0.33,-0.33,-0.32,-0.315,-0.32,-0.33,-0.345,-0.345,-0.34,-0.335,-0.335,-0.34,-0.355,-0.34,-0.345,-0.34,-0.35,-0.35,-0.365,-0.365,-0.35,-0.335,-0.335,-0.35,-0.36,-0.37,-0.36,-0.345,-0.35,-0.365,-0.365,-0.37,-0.355,-0.355,-0.36,-0.365,-0.365,-0.355,-0.335,-0.34,-0.355,-0.375,-0.385,-0.375,-0.36,-0.35,-0.355,-0.365,-0.375,-0.37
-0.36,-0.365,-0.365,-0.355,-0.335,-0.34,-0.355,-0.375,-0.385,-0.375,-0.36,-0.35,-0.355,-0.365,-0.375,-0.37,-0.36,-0.355,-0.355,-0.365,-0.365,-0.355,-0.335,-0.325,-0.335,-0.36,-0.375,-0.355,-0.335,-0.32,-0.32,-0.29,-0.3,-0.275,-0.25,-0.22,-0.24,-0.255,-0.245,-0.215,-0.18,-0.17,-0.165,-0.145,-0.135,-0.125,-0.115,-0.105,-0.115,-0.13,-0.17,-0.17,-0.18,-0.18,-0.21,-0.255,-0.315,-0.35,-0.37,-0.375,-0.37,-0.39,-0.405,-0.4,-0.39,-0.375,-0.38,-0.385,-0.405,-0.385,-0.375,-0.375,-0.38,-0.375,-0.38,-0.37,-0.355,-0.35,-0.355,-0.365,-0.375,-0.36,-0.35,-0.34,-0.34,-0.355,-0.38,-0.38,-0.36,-0.32,-0.23,-0.1,0.055,0.24,0.415,0.61,0.775,0.925,1.03,1.105,1.155,1.14,1.035,0.885,0.755,0.65,0.54,0.37,0.19,0.08,-0.015,-0.08,-0.175,-0.245,-0.305,-0.365,-0.41,-0.45,-0.47,-0.49,-0.495,-0.535,-0.56,-0.57,-0.565,-0.555,-0.56,-0.565,-0.585,-0.57,-0.555,-0.55,-0.545,-0.555,-0.57,-0.56,-0.55,-0.545,-0.525,-0.53,-0.545,-0.535,-0.53,-0.53,-0.52,-0.525,-0.535,-0.535,-0.525,-0.535,-0.525,-0.53,-0.55,-0.535,-0.53,-0.52,-0.535,-0.545,-0.55,-0.54,-0.525,-0.525,-0.535,-0.54,-0.53,-0.52,-0.51,-0.5,-0.505,-0.515,-0.52,-0.51,-0.505,-0.495,-0.48,-0.475,-0.475,-0.455,-0.425,-0.4,-0.41,-0.405,-0.4,-0.385,-0.37,-0.345,-0.315,-0.31,-0.315,-0.29,-0.26,-0.25,-0.235,-0.23,-0.24,-0.225,-0.22,-0.205,-0.2,-0.18,-0.185,-0.18,-0.185,-0.17,-0.19,-0.21,-0.225,-0.23,-0.215,-0.215,-0.23,-0.25,-0.26,-0.27,-0.255,-0.255,-0.265,-0.275,-0.275,-0.28,-0.285,-0.27,-0.27,-0.295,-0.3,-0.31,-0.31,-0.295,-0.295,-0.295,-0.315,-0.315,-0.325,-0.315,-0.315,-0.315,-0.325,-0.335,-0.33,-0.33,-0.32,-0.32,-0.325,-0.325,-0.31,-0.31,-0.315,-0.305,-0.31,-0.32,-0.32,-0.32,-0.32,-0.32,-0.33,-0.32,-0.315,-0.305,-0.315,-0.315,-0.34,-0.335,-0.325,-0.315,-0.31
-0.305,-0.315,-0.315,-0.34,-0.335,-0.325,-0.315,-0.31,-0.33,-0.34,-0.32,-0.305,-0.295,-0.3,-0.315,-0.33,-0.33,-0.31,-0.295,-0.3,-0.32,-0.33,-0.325,-0.31,-0.295,-0.31,-0.32,-0.315,-0.295,-0.28,-0.265,-0.245,-0.245,-0.245,-0.24,-0.22,-0.215,-0.23,-0.21,-0.195,-0.18,-0.16,-0.135,-0.125,-0.13,-0.13,-0.12,-0.095,-0.105,-0.105,-0.13,-0.15,-0.14,-0.145,-0.17,-0.23,-0.28,-0.325,-0.34,-0.34,-0.335,-0.36,-0.365,-0.375,-0.37,-0.355,-0.34,-0.345,-0.35,-0.345,-0.35,-0.35,-0.33,-0.315,-0.325,-0.34,-0.33,-0.335,-0.315,-0.31,-0.31,-0.32,-0.315,-0.305,-0.305,-0.315,-0.325,-0.335,-0.33,-0.275,-0.165,-0.01,0.185,0.355,0.56,0.77,0.945,1.05,1.14,1.18,1.14,1.035,0.895,0.77,0.675,0.57,0.46,0.31,0.17,0.065,-0.03,-0.11,-0.195,-0.27,-0.33,-0.365,-0.42,-0.485,-0.5,-0.51,-0.5,-0.505,-0.515,-0.535,-0.545,-0.54,-0.54,-0.54,-0.535,-0.52,-0.515,-0.515,-0.51,-0.51,-0.505,-0.5,-0.495,-0.49,-0.49,-0.495,-0.495,-0.485,-0.465,-0.47,-0.47,-0.475,-0.495,-0.49,-0.47,-0.47,-0.485,-0.48,-0.5,-0.485,-0.475,-0.485,-0.48,-0.49,-0.495,-0.505,-0.51,-0.475,-0.48,-0.485,-0.5,-0.495,-0.485,-0.475,-0.465,-0.47,-0.485,-0.465,-0.45,-0.425,-0.42,-0.4,-0.415,-0.395,-0.385,-0.38,-0.375,-0.37,-0.37,-0.345,-0.315,-0.285,-0.28,-0.255,-0.26,-0.235,-0.215,-0.195,-0.19,-0.18,-0.175,-0.165,-0.155,-0.14,-0.145,-0.15,-0.155,-0.175,-0.175,-0.16,-0.175,-0.2,-0.215,-0.22,-0.215,-0.225,-0.23,-0.23,-0.24,-0.235,-0.24,-0.245,-0.255,-0.245,-0.245,-0.255,-0.245,-0.24,-0.255,-0.265,-0.28,-0.275,-0.27,-0.26,-0.26,-0.27,-0.28,-0.285,-0.28,-0.27,-0.27,-0.275,-0.27,-0.27,-0.27,-0.265,-0.255,-0.275,-0.29,-0.28,-0.27,-0.28,-0.285,-0.28,-0.28,-0.275,-0.275,-0.26,-0.265,-0.28,-0.285,-0.28,-0.27,-0.25,-0.27,-0.29,-0.28,-0.29,-0.265,-0.26,-0.255
-0.25,-0.27,-0.29,-0.28,-0.29,-0.265,-0.26,-0.255,-0.27,-0.285,-0.285,-0.275,-0.26,-0.27,-0.265,-0.28,-0.28,-0.26,-0.265,-0.275,-0.28,-0.295,-0.275,-0.25,-0.245,-0.255,-0.27,-0.285,-0.285,-0.265,-0.24,-0.235,-0.225,-0.205,-0.17,-0.145,-0.15,-0.18,-0.175,-0.17,-0.13,-0.1,-0.085,-0.09,-0.075,-0.085,-0.09,-0.075,-0.055,-0.065,-0.075,-0.09,-0.11,-0.11,-0.12,-0.13,-0.19,-0.26,-0.3,-0.325,-0.33,-0.335,-0.34,-0.335,-0.33,-0.34,-0.34,-0.335,-0.335,-0.34,-0.325,-0.335,-0.325,-0.32,-0.325,-0.325,-0.325,-0.31,-0.295,-0.305,-0.305,-0.305,-0.28,-0.27,-0.275,-0.29,-0.315,-0.31,-0.29,-0.245,-0.16,-0.045,0.115,0.3,0.515,0.74,0.935,1.075,1.195,1.235,1.195,1.08,0.96,0.835,0.74,0.625,0.465,0.31,0.215,0.14,0.025,-0.08,-0.16,-0.23,-0.27,-0.325,-0.385,-0.445,-0.46,-0.46,-0.485,-0.485,-0.495,-0.5,-0.495,-0.51,-0.515,-0.505,-0.495,-0.495,-0.495,-0.475,-0.475,-0.48,-0.485,-0.49,-0.5,-0.485,-0.47,-0.47,-0.465,-0.47,-0.465,-0.465,-0.48,-0.475,-0.48,-0.48,-0.48,-0.465,-0.47,-0.47,-0.475,-0.485,-0.465,-0.46,-0.455,-0.45,-0.46,-0.48,-0.46,-0.45,-0.44,-0.445,-0.45,-0.465,-0.465,-0.465,-0.455,-0.44,-0.43,-0.435,-0.42,-0.41,-0.39,-0.37,-0.365,-0.36,-0.33,-0.315,-0.295,-0.275,-0.28,-0.27,-0.24,-0.22,-0.2,-0.185,-0.18,-0.175,-0.16,-0.135,-0.115,-0.125,-0.13,-0.155,-0.15,-0.14,-0.135,-0.14,-0.16,-0.175,-0.175,-0.18,-0.17,-0.185,-0.2,-0.215,-0.22,-0.225,-0.235,-0.235,-0.24,-0.25,-0.25,-0.24,-0.235,-0.25,-0.25,-0.28,-0.27,-0.27,-0.26,-0.275,-0.275,-0.3,-0.285,-0.275,-0.265,-0.27,-0.28,-0.295,-0.29,-0.285,-0.265,-0.285,-0.295,-0.295,-0.31,-0.29,-0.28,-0.285,-0.29,-0.29,-0.295,-0.29,-0.285,-0.29,-0.285,-0.31,-0.3,-0.305,-0.295,-0.29,-0.29,-0.29,-0.295,-0.3,-0.28,-0.28,-0.285,-0.3,-0.29,-0.285,-0.275
-0.3,-0.28,-0.28,-0.285,-0.3,-0.29,-0.285,-0.275,-0.27,-0.275,-0.3,-0.29,-0.275,-0.275,-0.27,-0.285,-0.295,-0.285,-0.28,-0.265,-0.27,-0.27,-0.27,-0.275,-0.255,-0.255,-0.255,-0.265,-0.27,-0.225,-0.205,-0.195,-0.185,-0.195,-0.2,-0.195,-0.175,-0.145,-0.13,-0.13,-0.125,-0.11,-0.095,-0.06,-0.07,-0.075,-0.105,-0.1,-0.085,-0.085,-0.09,-0.115,-0.13,-0.155,-0.18,-0.22,-0.275,-0.305,-0.355,-0.35,-0.335,-0.33,-0.34,-0.35,-0.37,-0.345,-0.34,-0.33,-0.33,-0.34,-0.34,-0.33,-0.325,-0.32,-0.32,-0.33,-0.34,-0.32,-0.305,-0.295,-0.29,-0.3,-0.32,-0.3,-0.31,-0.31,-0.315,-0.31,-0.3,-0.235,-0.14,0.0,0.18,0.365,0.555,0.755,0.94,1.075,1.16,1.21,1.165,1.065,0.94,0.835,0.755,0.655,0.525,0.36,0.22,0.135,0.07,-0.02,-0.13,-0.215,-0.275,-0.315,-0.36,-0.41,-0.445,-0.455,-0.465,-0.465,-0.47,-0.485,-0.495,-0.505,-0.5,-0.495,-0.5,-0.495,-0.5,-0.495,-0.48,-0.47,-0.475,-0.47,-0.485,-0.475,-0.465,-0.465,-0.47,-0.495,-0.495,-0.485,-0.475,-0.47,-0.48,-0.485,-0.505,-0.495,-0.475,-0.46,-0.465,-0.48,-0.485,-0.495,-0.475,-0.485,-0.485,-0.475,-0.495,-0.505,-0.49,-0.485,-0.47,-0.47,-0.47,-0.485,-0.465,-0.465,-0.465,-0.46,-0.45,-0.455,-0.43,-0.41,-0.41,-0.41,-0.405,-0.38,-0.35,-0.34,-0.33,-0.325,-0.3,-0.27,-0.245,-0.24,-0.225,-0.23,-0.23,-0.21,-0.195,-0.175,-0.175,-0.175,-0.175,-0.17,-0.155,-0.14,-0.155,-0.175,-0.19,-0.18,-0.195,-0.205,-0.2,-0.205,-0.23,-0.23,-0.225,-0.21,-0.225,-0.24,-0.245,-0.25,-0.245,-0.245,-0.245,-0.26,-0.28,-0.29,-0.28,-0.26,-0.26,-0.285,-0.295,-0.285,-0.28,-0.265,-0.27,-0.275,-0.305,-0.3,-0.295,-0.275,-0.28,-0.295,-0.3,-0.295,-0.29,-0.285,-0.29,-0.3,-0.3,-0.29,-0.285,-0.295,-0.28,-0.285,-0.295,-0.285,-0.29,-0.275,-0.285,-0.305,-0.305,-0.305,-0.285,-0.285,-0.29,-0.295,-0.305,-0.305,-0.295
-0.305,-0.305,-0.295,-0.285,-0.28,-0.28,-0.295,-0.29,-0.285,-0.275,-0.285,-0.28,-0.295,-0.29,-0.29,-0.285,-0.28,-0.29,-0.3,-0.275,-0.275,-0.275,-0.275,-0.29,-0.285,-0.27,-0.265,-0.245,-0.23,-0.22,-0.22,-0.21,-0.18,-0.18,-0.19,-0.19,-0.19,-0.15,-0.125,-0.105,-0.095,-0.09,-0.09,-0.075,-0.06,-0.065,-0.08,-0.095,-0.11,-0.105,-0.1,-0.1,-0.125,-0.17,-0.225,-0.27,-0.295,-0.305,-0.325,-0.345,-0.34,-0.335,-0.325,-0.32,-0.33,-0.34,-0.35,-0.34,-0.32,-0.32,-0.32,-0.32,-0.325,-0.325,-0.32,-0.3,-0.295,-0.305,-0.31,-0.31,-0.305,-0.29,-0.28,-0.305,-0.31,-0.315,-0.325,-0.31,-0.3,-0.255,-0.18,-0.045,0.135,0.32,0.495,0.675,0.855,1.015,1.135,1.2,1.205,1.1,0.95,0.82,0.745,0.66,0.52,0.355,0.24,0.155,0.14,0.08,-0.02,-0.125,-0.22,-0.29,-0.325,-0.355,-0.395,-0.435,-0.455,-0.46,-0.475,-0.48,-0.495,-0.5,-0.51,-0.5,-0.485,-0.475,-0.48,-0.495,-0.49,-0.485,-0.475,-0.445,-0.46,-0.485,-0.495,-0.49,-0.48,-0.465,-0.465,-0.47,-0.48,-0.475,-0.46,-0.47,-0.46,-0.47,-0.47,-0.48,-0.485,-0.475,-0.475,-0.49,-0.51,-0.51,-0.51,-0.495,-0.5,-0.51,-0.505,-0.495,-0.505,-0.49,-0.49,-0.495,-0.495,-0.485,-0.47,-0.465,-0.485,-0.48,-0.485,-0.47,-0.44,-0.43,-0.44,-0.435,-0.425,-0.405,-0.4,-0.385,-0.365,-0.355,-0.35,-0.33,-0.315,-0.29,-0.275,-0.27,-0.265,-0.25,-0.245,-0.215,-0.2,-0.19,-0.195,-0.175,-0.16,-0.155,-0.15,-0.16,-0.165,-0.16,-0.155,-0.155,-0.17,-0.185,-0.2,-0.21,-0.195,-0.2,-0.21,-0.235,-0.24,-0.245,-0.235,-0.22,-0.23,-0.255,-0.27,-0.275,-0.265,-0.26,-0.265,-0.265,-0.275,-0.285,-0.275,-0.265,-0.26,-0.275,-0.29,-0.28,-0.295,-0.28,-0.285,-0.29,-0.31,-0.295,-0.285,-0.285,-0.295,-0.31,-0.325,-0.31,-0.295,-0.285,-0.295,-0.305,-0.305,-0.31,-0.295,-0.29,-0.29,-0.3,-0.305,-0.295,-0.3,-0.3,-0.295,-0.285,-0.295
-0.29,-0.295,-0.31,-0.3,-0.295,-0.275,-0.275,-0.29,-0.3,-0.305,-0.29,-0.29,-0.285,-0.28,-0.285,-0.29,-0.285,-0.28,-0.285,-0.275,-0.285,-0.275,-0.265,-0.265,-0.265,-0.265,-0.255,-0.22,-0.185,-0.175,-0.18,-0.2,-0.215,-0.19,-0.16,-0.125,-0.115,-0.11,-0.115,-0.115,-0.1,-0.075,-0.075,-0.085,-0.1,-0.095,-0.085,-0.1,-0.12,-0.125,-0.145,-0.165,-0.195,-0.245,-0.3,-0.325,-0.35,-0.35,-0.34,-0.34,-0.35,-0.36,-0.37,-0.355,-0.34,-0.335,-0.345,-0.335,-0.35,-0.35,-0.34,-0.34,-0.335,-0.335,-0.35,-0.34,-0.325,-0.31,-0.295,-0.325,-0.325,-0.31,-0.32,-0.315,-0.315,-0.33,-0.335,-0.32,-0.275,-0.215,-0.1,0.01,0.165,0.34,0.525,0.705,0.86,0.98,1.08,1.18,1.205,1.155,1.025,0.88,0.77,0.685,0.595,0.48,0.33,0.22,0.165,0.09,0.015,-0.08,-0.175,-0.25,-0.31,-0.36,-0.415,-0.465,-0.49,-0.505,-0.52,-0.525,-0.535,-0.53,-0.53,-0.525,-0.55,-0.55,-0.555,-0.53,-0.525,-0.53,-0.53,-0.525,-0.525,-0.52,-0.525,-0.53,-0.52,-0.505,-0.51,-0.505,-0.505,-0.52,-0.525,-0.52,-0.505,-0.505,-0.505,-0.52,-0.525,-0.535,-0.53,-0.525,-0.525,-0.525,-0.53,-0.525,-0.525,-0.52,-0.525,-0.535,-0.53,-0.53,-0.52,-0.515,-0.53,-0.525,-0.53,-0.53,-0.51,-0.495,-0.495,-0.495,-0.505,-0.49,-0.465,-0.44,-0.435,-0.435,-0.445,-0.43,-0.405,-0.375,-0.365,-0.345,-0.335,-0.335,-0.315,-0.29,-0.3,-0.275,-0.275,-0.25,-0.23,-0.22,-0.22,-0.21,-0.215,-0.19,-0.18,-0.165,-0.17,-0.185,-0.205,-0.195,-0.19,-0.185,-0.185,-0.2,-0.21,-0.225,-0.22,-0.22,-0.235,-0.24,-0.26,-0.27,-0.275,-0.27,-0.275,-0.28,-0.29,-0.285,-0.275,-0.275,-0.29,-0.295,-0.31,-0.31,-0.295,-0.275,-0.295,-0.3,-0.315,-0.32,-0.31,-0.295,-0.3,-0.315,-0.335,-0.32,-0.315,-0.305,-0.315,-0.32,-0.325,-0.32,-0.315,-0.315,-0.31,-0.33,-0.335,-0.315,-0.32,-0.31,-0.31,-0.325,-0.335,-0.325,-0.31,-0.305,-0.3
-0.31,-0.315,-0.305,-0.305,-0.31,-0.315,-0.315,-0.31,-0.3,-0.29,-0.31,-0.315,-0.33,-0.315,-0.295,-0.295,-0.3,-0.3,-0.315,-0.3,-0.29,-0.285,-0.285,-0.295,-0.305,-0.31,-0.295,-0.28,-0.27,-0.255,-0.25,-0.22,-0.205,-0.19,-0.195,-0.21,-0.22,-0.195,-0.175,-0.16,-0.155,-0.15,-0.145,-0.13,-0.11,-0.095,-0.11,-0.105,-0.125,-0.135,-0.13,-0.125,-0.14,-0.155,-0.2,-0.24,-0.275,-0.3,-0.32,-0.345,-0.38,-0.385,-0.37,-0.355,-0.365,-0.375,-0.38,-0.365,-0.355,-0.355,-0.36,-0.36,-0.37,-0.355,-0.345,-0.345,-0.335,-0.34,-0.34,-0.34,-0.325,-0.315,-0.32,-0.335,-0.345,-0.325,-0.345,-0.325,-0.315,-0.285,-0.185,-0.025,0.165,0.375,0.595,0.76,0.945,1.09,1.2,1.28,1.255,1.145,0.995,0.85,0.73,0.625,0.47,0.305,0.175,0.1,0.035,-0.06,-0.145,-0.235,-0.29,-0.335,-0.385,-0.435,-0.46,-0.49,-0.495,-0.51,-0.525,-0.535,-0.54,-0.535,-0.555,-0.56,-0.53,-0.52,-0.52,-0.525,-0.54,-0.53,-0.525,-0.52,-0.52,-0.515,-0.525,-0.515,-0.5,-0.5,-0.505,-0.51,-0.53,-0.53,-0.51,-0.51,-0.505,-0.505,-0.51,-0.53,-0.51,-0.5,-0.505,-0.515,-0.525,-0.52,-0.5,-0.495,-0.495,-0.515,-0.52,-0.525,-0.51,-0.51,-0.51,-0.5,-0.5,-0.49,-0.48,-0.485,-0.47,-0.46,-0.465,-0.45,-0.435,-0.42,-0.415,-0.41,-0.41,-0.4,-0.36,-0.34,-0.33,-0.31,-0.31,-0.3,-0.275,-0.255,-0.235,-0.23,-0.235,-0.21,-0.19,-0.175,-0.16,-0.16,-0.16,-0.165,-0.17,-0.18,-0.175,-0.185,-0.205,-0.205,-0.2,-0.21,-0.22,-0.225,-0.25,-0.25,-0.25,-0.26,-0.26,-0.27,-0.295,-0.285,-0.26,-0.26,-0.27,-0.275,-0.305,-0.3,-0.295,-0.295,-0.29,-0.285,-0.3,-0.305,-0.3,-0.295,-0.3,-0.31,-0.315,-0.315,-0.305,-0.3,-0.305,-0.3,-0.32,-0.32,-0.315,-0.32,-0.325,-0.32,-0.33,-0.33,-0.32,-0.305,-0.31,-0.315,-0.32,-0.315,-0.305,-0.3,-0.305,-0.305,-0.33,-0.32,-0.305,-0.3,-0.305,-0.295,-0.3
-0.295,-0.3,-0.325,-0.305,-0.29,-0.295,-0.3,-0.315,-0.32,-0.31,-0.305,-0.3,-0.31,-0.32,-0.31,-0.305,-0.295,-0.295,-0.31,-0.315,-0.32,-0.31,-0.31,-0.305,-0.31,-0.305,-0.305,-0.29,-0.26,-0.25,-0.24,-0.25,-0.235,-0.22,-0.21,-0.225,-0.22,-0.225,-0.18,-0.16,-0.145,-0.125,-0.135,-0.125,-0.11,-0.105,-0.11,-0.115,-0.135,-0.155,-0.155,-0.17,-0.175,-0.195,-0.235,-0.28,-0.325,-0.33,-0.345,-0.36,-0.375,-0.38,-0.375,-0.38,-0.38,-0.38,-0.39,-0.375,-0.355,-0.355,-0.35,-0.345,-0.345,-0.35,-0.345,-0.34,-0.33,-0.325,-0.335,-0.34,-0.34,-0.32,-0.31,-0.325,-0.32,-0.335,-0.34,-0.32,-0.315,-0.275,-0.195,-0.05,0.115,0.315,0.48,0.67,0.83,0.955,1.08,1.165,1.22,1.2,1.09,0.93,0.81,0.72,0.615,0.44,0.26,0.125,0.035,-0.03,-0.095,-0.195,-0.28,-0.33,-0.365,-0.385,-0.42,-0.465,-0.495,-0.515,-0.525,-0.53,-0.525,-0.53,-0.525,-0.54,-0.535,-0.525,-0.52,-0.52,-0.535,-0.515,-0.515,-0.5,-0.52,-0.52,-0.51,-0.525,-0.52,-0.495,-0.49,-0.52,-0.51,-0.515,-0.51,-0.505,-0.505,-0.51,-0.5,-0.515,-0.52,-0.515,-0.515,-0.525,-0.51,-0.52,-0.505,-0.5,-0.5,-0.51,-0.51,-0.51,-0.51,-0.5,-0.5,-0.5,-0.5,-0.495,-0.485,-0.455,-0.46,-0.44,-0.46,-0.455,-0.435,-0.405,-0.4,-0.395,-0.4,-0.4,-0.37,-0.345,-0.325,-0.315,-0.305,-0.29,-0.27,-0.245,-0.225,-0.225,-0.205,-0.22,-0.195,-0.185,-0.175,-0.18,-0.19,-0.195,-0.185,-0.19,-0.2,-0.195,-0.22,-0.24,-0.24,-0.24,-0.23,-0.235,-0.24,-0.265,-0.265,-0.255,-0.255,-0.26,-0.265,-0.27,-0.28,-0.265,-0.25,-0.27,-0.28,-0.29,-0.28,-0.275,-0.28,-0.275,-0.28,-0.29,-0.295,-0.29,-0.3,-0.28,-0.3,-0.295,-0.295,-0.28,-0.28,-0.28,-0.29,-0.3,-0.275,-0.27,-0.275,-0.285,-0.285,-0.29,-0.275,-0.28,-0.265,-0.27,-0.29,-0.3,-0.275,-0.285,-0.27,-0.275,-0.28,-0.285,-0.28,-0.265,-0.27,-0.26,-0.275
-0.3,-0.275,-0.285,-0.27,-0.275,-0.28,-0.285,-0.28,-0.265,-0.27,-0.26,-0.275,-0.28,-0.275,-0.255,-0.245,-0.245,-0.265,-0.285,-0.275,-0.275,-0.255,-0.255,-0.255,-0.27,-0.265,-0.255,-0.235,-0.23,-0.235,-0.25,-0.235,-0.205,-0.175,-0.155,-0.16,-0.16,-0.16,-0.155,-0.15,-0.14,-0.115,-0.105,-0.08,-0.07,-0.055,-0.045,-0.045,-0.055,-0.05,-0.065,-0.07,-0.07,-0.08,-0.1,-0.12,-0.16,-0.195,-0.25,-0.29,-0.315,-0.315,-0.32,-0.295,-0.31,-0.32,-0.315,-0.315,-0.295,-0.275,-0.28,-0.29,-0.315,-0.295,-0.29,-0.29,-0.275,-0.29,-0.3,-0.29,-0.275,-0.265,-0.255,-0.265,-0.29,-0.295,-0.285,-0.255,-0.22,-0.155,-0.075,0.06,0.21,0.38,0.555,0.745,0.915,1.065,1.165,1.25,1.22,1.095,0.93,0.795,0.68,0.57,0.41,0.275,0.195,0.13,0.035,-0.055,-0.13,-0.195,-0.255,-0.31,-0.345,-0.37,-0.405,-0.425,-0.44,-0.45,-0.45,-0.45,-0.465,-0.46,-0.48,-0.46,-0.445,-0.43,-0.435,-0.45,-0.465,-0.46,-0.45,-0.445,-0.43,-0.44,-0.44,-0.455,-0.43,-0.44,-0.435,-0.435,-0.445,-0.445,-0.435,-0.435,-0.435,-0.445,-0.44,-0.435,-0.43,-0.43,-0.44,-0.44,-0.435,-0.435,-0.43,-0.42,-0.43,-0.44,-0.44,-0.445,-0.435,-0.41,-0.415,-0.415,-0.43,-0.415,-0.405,-0.39,-0.38,-0.385,-0.395,-0.385,-0.36,-0.33,-0.32,-0.31,-0.31,-0.31,-0.28,-0.245,-0.225,-0.21,-0.205,-0.195,-0.165,-0.15,-0.14,-0.135,-0.115,-0.11,-0.095,-0.095,-0.105,-0.11,-0.115,-0.105,-0.11,-0.11,-0.125,-0.14,-0.15,-0.155,-0.15,-0.155,-0.17,-0.175,-0.19,-0.18,-0.17,-0.175,-0.175,-0.19,-0.21,-0.2,-0.2,-0.195,-0.2,-0.215,-0.22,-0.225,-0.215,-0.195,-0.22,-0.205,-0.23,-0.23,-0.22,-0.215,-0.215,-0.23,-0.25,-0.24,-0.23,-0.22,-0.215,-0.23,-0.23,-0.22,-0.225,-0.23,-0.23,-0.22,-0.23,-0.23,-0.225,-0.215,-0.22,-0.22,-0.225,-0.225,-0.21,-0.215,-0.21,-0.215,-0.215,-0.215,-0.21,-0.2,-0.215,-0.225,-0.23
-0.31,-0.315,-0.33,-0.32,-0.315,-0.28,-0.275,-0.28,-0.28,-0.275,-0.25,-0.23,-0.23,-0.245,-0.26,-0.25,-0.235,-0.215,-0.21,-0.25,-0.285,-0.28,-0.245,-0.235,-0.235,-0.26,-0.255,-0.26,-0.245,-0.215,-0.23,-0.245,-0.275,-0.295,-0.28,-0.255,-0.25,-0.265,-0.3,-0.29,-0.29,-0.26,-0.265,-0.275,-0.28,-0.285,-0.265,-0.24,-0.265,-0.295,-0.33,-0.34,-0.295,-0.285,-0.295,-0.33,-0.345,-0.345,-0.32,-0.31,-0.335,-0.34,-0.35,-0.34,-0.35,-0.315,-0.335,-0.345,-0.325,-0.32,-0.3,-0.305,-0.305,-0.325,-0.355,-0.37,-0.35,-0.345,-0.325,-0.355,-0.365,-0.355,-0.365,-0.35,-0.345,-0.34,-0.355,-0.35,-0.34,-0.345,-0.345,-0.36,-0.36,-0.355,-0.34,-0.33,-0.34,-0.35,-0.37,-0.36,-0.345,-0.36,-0.37,-0.37,-0.37,-0.375,-0.36,-0.355,-0.355,-0.365,-0.39,-0.39,-0.38,-0.365,-0.385,-0.38,-0.375,-0.375,-0.355,-0.34,-0.335,-0.335,-0.35,-0.365,-0.375,-0.365,-0.37,-0.375,-0.395,-0.4,-0.38,-0.35,-0.345,-0.345,-0.35,-0.36,-0.355,-0.345,-0.365,-0.395,-0.4,-0.395,-0.35,-0.325,-0.335,-0.35,-0.385,-0.37,-0.36,-0.345,-0.33,-0.335,-0.34,-0.36,-0.34,-0.335,-0.345,-0.39,-0.4,-0.395,-0.36,-0.345,-0.345,-0.345,-0.34,-0.35,-0.315,-0.29,-0.3,-0.32,-0.325,-0.305,-0.31,-0.28,-0.265,-0.245,-0.235,-0.185,-0.1,-0.005,0.035,0.01,-0.03,-0.07,-0.09,-0.1,-0.115,-0.135,-0.16,-0.185,-0.18,-0.185,-0.225,-0.235,-0.26,-0.29,-0.305,-0.315,-0.36,-0.385,-0.385,-0.38,-0.355,-0.335,-0.32,-0.32,-0.335,-0.33,-0.335,-0.33,-0.34,-0.37,-0.425,-0.465,-0.46,-0.32,-0.035,0.4,0.895,1.335,1.685,1.9,2.01,1.98,1.815,1.47,0.94,0.3,-0.34,-0.765,-0.725,-0.55,-0.45,-0.445,-0.46,-0.455,-0.435,-0.415,-0.39,-0.395,-0.415,-0.435,-0.45,-0.44,-0.415,-0.405,-0.415,-0.425,-0.43,-0.43,-0.435,-0.425,-0.42,-0.42,-0.415,-0.41,-0.41,-0.39,-0.39,-0.415,-0.43,-0.455,-0.41,-0.385,-0.38
-0.35,-0.365,-0.375,-0.365,-0.37,-0.375,-0.395,-0.4,-0.38,-0.35,-0.345,-0.345,-0.35,-0.36,-0.355,-0.345,-0.365,-0.395,-0.4,-0.395,-0.35,-0.325,-0.335,-0.35,-0.385,-0.37,-0.36,-0.345,-0.33,-0.335,-0.34,-0.36,-0.34,-0.335,-0.345,-0.39,-0.4,-0.395,-0.36,-0.345,-0.345,-0.345,-0.34,-0.35,-0.315,-0.29,-0.3,-0.32,-0.325,-0.305,-0.31,-0.28,-0.265,-0.245,-0.235,-0.185,-0.1,-0.005,0.035,0.01,-0.03,-0.07,-0.09,-0.1,-0.115,-0.135,-0.16,-0.185,-0.18,-0.185,-0.225,-0.235,-0.26,-0.29,-0.305,-0.315,-0.36,-0.385,-0.385,-0.38,-0.355,-0.335,-0.32,-0.32,-0.335,-0.33,-0.335,-0.33,-0.34,-0.37,-0.425,-0.465,-0.46,-0.32,-0.035,0.4,0.895,1.335,1.685,1.9,2.01,1.98,1.815,1.47,0.94,0.3,-0.34,-0.765,-0.725,-0.55,-0.45,-0.445,-0.46,-0.455,-0.435,-0.415,-0.39,-0.395,-0.415,-0.435,-0.45,-0.44,-0.415,-0.405,-0.415,-0.425,-0.43,-0.43,-0.435,-0.425,-0.42,-0.42,-0.415,-0.41,-0.41,-0.39,-0.39,-0.415,-0.43,-0.455,-0.41,-0.385,-0.38,-0.39,-0.385,-0.38,-0.385,-0.355,-0.355,-0.35,-0.35,-0.36,-0.345,-0.315,-0.29,-0.29,-0.32,-0.3,-0.275,-0.255,-0.245,-0.255,-0.25,-0.225,-0.215,-0.22,-0.19,-0.16,-0.115,-0.075,-0.07,-0.085,-0.095,-0.095,-0.07,-0.02,0.01,0.035,0.015,0.015,0.04,0.1,0.145,0.195,0.235,0.25,0.27,0.3,0.355,0.42,0.465,0.495,0.515,0.525,0.555,0.6,0.64,0.65,0.625,0.615,0.605,0.645,0.64,0.6,0.535,0.525,0.55,0.565,0.54,0.52,0.49,0.45,0.415,0.365,0.295,0.26,0.245,0.215,0.165,0.15,0.115,0.085,0.06,0.025,0.03,0.03,0.0,-0.04,-0.06,-0.095,-0.075,-0.07,-0.075,-0.105,-0.13,-0.14,-0.15,-0.135,-0.17,-0.195,-0.21,-0.21,-0.195,-0.21,-0.21,-0.225,-0.245,-0.26,-0.25,-0.24,-0.24,-0.245,-0.25,-0.255,-0.25,-0.23,-0.225,-0.225,-0.205,-0.2,-0.215,-0.25,-0.285,-0.275,-0.255
-0.315,-0.31,-0.295,-0.29,-0.32,-0.31,-0.315,-0.285,-0.27,-0.265,-0.275,-0.28,-0.3,-0.335,-0.325,-0.325,-0.325,-0.33,-0.34,-0.31,-0.295,-0.29,-0.29,-0.28,-0.275,-0.27,-0.26,-0.27,-0.295,-0.31,-0.31,-0.295,-0.275,-0.285,-0.315,-0.315,-0.31,-0.295,-0.28,-0.28,-0.285,-0.29,-0.295,-0.285,-0.285,-0.26,-0.275,-0.29,-0.28,-0.285,-0.235,-0.21,-0.185,-0.175,-0.15,-0.11,-0.085,-0.025,0.025,0.06,0.05,0.03,-0.005,-0.045,-0.095,-0.115,-0.11,-0.11,-0.09,-0.1,-0.135,-0.18,-0.225,-0.24,-0.23,-0.255,-0.285,-0.31,-0.31,-0.28,-0.26,-0.27,-0.285,-0.32,-0.32,-0.3,-0.26,-0.265,-0.3,-0.37,-0.415,-0.45,-0.435,-0.345,-0.13,0.28,0.79,1.29,1.65,1.865,1.995,2.03,1.97,1.805,1.44,0.8,0.16,-0.48,-0.74,-0.535,-0.355,-0.33,-0.36,-0.39,-0.365,-0.34,-0.295,-0.32,-0.365,-0.42,-0.425,-0.41,-0.395,-0.395,-0.405,-0.415,-0.42,-0.41,-0.395,-0.405,-0.405,-0.415,-0.4,-0.37,-0.36,-0.355,-0.365,-0.39,-0.39,-0.375,-0.335,-0.325,-0.34,-0.365,-0.37,-0.34,-0.315,-0.3,-0.31,-0.305,-0.3,-0.29,-0.265,-0.255,-0.26,-0.26,-0.255,-0.275,-0.255,-0.24,-0.245,-0.22,-0.2,-0.16,-0.15,-0.15,-0.145,-0.135,-0.115,-0.1,-0.08,-0.045,-0.025,-0.01,0.015,0.05,0.095,0.12,0.125,0.13,0.165,0.22,0.275,0.31,0.35,0.375,0.395,0.425,0.48,0.545,0.575,0.57,0.575,0.6,0.64,0.635,0.615,0.615,0.605,0.61,0.6,0.575,0.515,0.495,0.44,0.44,0.445,0.41,0.34,0.265,0.245,0.23,0.215,0.175,0.125,0.055,0.035,0.015,0.01,-0.015,-0.04,-0.045,-0.07,-0.055,-0.06,-0.09,-0.125,-0.165,-0.21,-0.2,-0.2,-0.205,-0.22,-0.255,-0.255,-0.27,-0.265,-0.255,-0.25,-0.275,-0.285,-0.295,-0.29,-0.275,-0.28,-0.3,-0.31,-0.315,-0.32,-0.285,-0.325,-0.34,-0.355,-0.35,-0.34,-0.335,-0.335,-0.345,-0.325,-0.33,-0.345,-0.345,-0.36,-0.33,-0.32
-0.3,-0.3,-0.305,-0.32,-0.32,-0.305,-0.31,-0.34,-0.365,-0.365,-0.34,-0.325,-0.325,-0.31,-0.315,-0.305,-0.29,-0.285,-0.285,-0.31,-0.32,-0.3,-0.29,-0.285,-0.33,-0.35,-0.355,-0.34,-0.32,-0.32,-0.315,-0.33,-0.33,-0.325,-0.295,-0.29,-0.295,-0.28,-0.33,-0.33,-0.33,-0.3,-0.29,-0.29,-0.295,-0.315,-0.325,-0.285,-0.28,-0.26,-0.265,-0.25,-0.205,-0.165,-0.14,-0.135,-0.14,-0.105,-0.075,0.01,0.035,0.035,0.025,-0.01,-0.03,-0.07,-0.105,-0.115,-0.125,-0.16,-0.165,-0.17,-0.185,-0.21,-0.25,-0.265,-0.275,-0.275,-0.305,-0.285,-0.275,-0.25,-0.245,-0.26,-0.295,-0.305,-0.325,-0.34,-0.345,-0.36,-0.39,-0.435,-0.43,-0.285,0.02,0.47,1.005,1.47,1.77,1.95,2.03,2.01,1.865,1.535,0.95,0.31,-0.33,-0.75,-0.615,-0.415,-0.355,-0.385,-0.405,-0.365,-0.33,-0.335,-0.35,-0.39,-0.41,-0.41,-0.415,-0.39,-0.39,-0.38,-0.385,-0.38,-0.395,-0.415,-0.435,-0.425,-0.405,-0.385,-0.39,-0.395,-0.4,-0.405,-0.39,-0.375,-0.385,-0.37,-0.36,-0.355,-0.335,-0.315,-0.33,-0.36,-0.355,-0.35,-0.345,-0.305,-0.295,-0.26,-0.295,-0.3,-0.29,-0.265,-0.255,-0.24,-0.25,-0.25,-0.235,-0.22,-0.185,-0.165,-0.15,-0.155,-0.13,-0.12,-0.105,-0.095,-0.06,-0.04,0.0,0.02,0.03,0.05,0.06,0.095,0.125,0.17,0.2,0.245,0.255,0.285,0.33,0.375,0.4,0.42,0.42,0.455,0.5,0.54,0.56,0.56,0.58,0.58,0.585,0.595,0.585,0.56,0.525,0.49,0.475,0.455,0.435,0.41,0.355,0.285,0.245,0.205,0.175,0.15,0.145,0.12,0.06,0.03,-0.005,-0.05,-0.065,-0.06,-0.065,-0.08,-0.095,-0.125,-0.15,-0.16,-0.16,-0.16,-0.185,-0.22,-0.25,-0.245,-0.245,-0.245,-0.265,-0.27,-0.275,-0.26,-0.255,-0.26,-0.3,-0.335,-0.345,-0.325,-0.315,-0.29,-0.29,-0.31,-0.33,-0.34,-0.335,-0.32,-0.32,-0.33,-0.335,-0.34,-0.32,-0.285,-0.265,-0.28,-0.29,-0.315,-0.305,-0.28,-0.29
-0.36,-0.345,-0.32,-0.295,-0.29,-0.295,-0.32,-0.325,-0.325,-0.32,-0.34,-0.33,-0.33,-0.335,-0.305,-0.31,-0.295,-0.325,-0.34,-0.34,-0.315,-0.305,-0.31,-0.32,-0.33,-0.325,-0.31,-0.29,-0.295,-0.31,-0.305,-0.305,-0.295,-0.285,-0.29,-0.285,-0.295,-0.31,-0.315,-0.315,-0.33,-0.325,-0.335,-0.32,-0.3,-0.275,-0.26,-0.265,-0.295,-0.3,-0.29,-0.235,-0.225,-0.19,-0.19,-0.155,-0.085,-0.02,0.055,0.07,0.025,0.005,-0.02,-0.06,-0.08,-0.085,-0.115,-0.135,-0.14,-0.175,-0.21,-0.235,-0.265,-0.285,-0.295,-0.305,-0.33,-0.325,-0.325,-0.33,-0.31,-0.31,-0.315,-0.345,-0.35,-0.335,-0.315,-0.31,-0.325,-0.39,-0.48,-0.5,-0.445,-0.265,0.02,0.455,0.94,1.42,1.73,1.92,2.01,1.99,1.825,1.48,0.95,0.31,-0.33,-0.755,-0.7,-0.51,-0.42,-0.41,-0.415,-0.39,-0.405,-0.405,-0.425,-0.41,-0.41,-0.41,-0.425,-0.435,-0.43,-0.425,-0.43,-0.435,-0.45,-0.465,-0.445,-0.435,-0.43,-0.45,-0.465,-0.47,-0.455,-0.42,-0.42,-0.41,-0.425,-0.415,-0.395,-0.375,-0.39,-0.405,-0.4,-0.4,-0.395,-0.405,-0.38,-0.35,-0.345,-0.345,-0.32,-0.3,-0.32,-0.34,-0.355,-0.35,-0.33,-0.285,-0.265,-0.28,-0.285,-0.275,-0.245,-0.215,-0.205,-0.2,-0.185,-0.18,-0.16,-0.14,-0.125,-0.115,-0.105,-0.1,-0.08,-0.045,-0.045,-0.03,0.005,0.035,0.09,0.13,0.175,0.18,0.19,0.235,0.265,0.345,0.39,0.395,0.395,0.415,0.45,0.495,0.53,0.535,0.55,0.54,0.545,0.55,0.56,0.545,0.535,0.515,0.49,0.475,0.43,0.395,0.355,0.31,0.28,0.255,0.225,0.175,0.15,0.12,0.105,0.1,0.05,0.025,-0.01,-0.02,-0.035,-0.055,-0.08,-0.09,-0.13,-0.155,-0.185,-0.18,-0.19,-0.2,-0.225,-0.245,-0.24,-0.245,-0.25,-0.28,-0.3,-0.325,-0.33,-0.315,-0.335,-0.35,-0.37,-0.36,-0.35,-0.33,-0.325,-0.33,-0.365,-0.39,-0.395,-0.39,-0.365,-0.37,-0.375,-0.38,-0.365,-0.345,-0.355,-0.365,-0.37
-0.4,-0.405,-0.4,-0.385,-0.38,-0.365,-0.39,-0.395,-0.415,-0.43,-0.42,-0.405,-0.39,-0.37,-0.38,-0.38,-0.395,-0.4,-0.395,-0.385,-0.395,-0.405,-0.395,-0.4,-0.385,-0.37,-0.39,-0.395,-0.395,-0.39,-0.38,-0.395,-0.42,-0.415,-0.385,-0.355,-0.355,-0.355,-0.365,-0.38,-0.375,-0.375,-0.365,-0.37,-0.37,-0.39,-0.385,-0.365,-0.33,-0.32,-0.3,-0.31,-0.29,-0.255,-0.215,-0.14,-0.08,-0.065,-0.06,-0.085,-0.095,-0.125,-0.175,-0.19,-0.215,-0.22,-0.2,-0.205,-0.24,-0.29,-0.29,-0.305,-0.31,-0.36,-0.415,-0.455,-0.445,-0.435,-0.41,-0.4,-0.41,-0.425,-0.435,-0.41,-0.39,-0.37,-0.385,-0.405,-0.43,-0.47,-0.51,-0.53,-0.505,-0.405,-0.15,0.285,0.83,1.33,1.675,1.85,1.94,1.955,1.86,1.595,1.1,0.46,-0.18,-0.82,-0.83,-0.65,-0.54,-0.54,-0.545,-0.53,-0.5,-0.505,-0.5,-0.53,-0.51,-0.505,-0.495,-0.48,-0.51,-0.525,-0.52,-0.505,-0.485,-0.495,-0.515,-0.53,-0.535,-0.525,-0.5,-0.485,-0.52,-0.505,-0.505,-0.485,-0.475,-0.465,-0.475,-0.485,-0.485,-0.46,-0.46,-0.49,-0.5,-0.5,-0.475,-0.455,-0.43,-0.405,-0.415,-0.445,-0.47,-0.44,-0.395,-0.405,-0.415,-0.43,-0.42,-0.41,-0.36,-0.335,-0.34,-0.34,-0.33,-0.305,-0.27,-0.285,-0.29,-0.29,-0.265,-0.225,-0.175,-0.15,-0.125,-0.135,-0.13,-0.135,-0.11,-0.1,-0.065,-0.05,0.005,0.035,0.09,0.125,0.155,0.17,0.21,0.26,0.3,0.345,0.375,0.405,0.41,0.435,0.47,0.495,0.495,0.49,0.485,0.495,0.52,0.52,0.5,0.465,0.415,0.41,0.4,0.385,0.355,0.29,0.25,0.245,0.23,0.2,0.15,0.1,0.09,0.06,0.05,0.035,0.01,-0.04,-0.08,-0.08,-0.095,-0.105,-0.115,-0.15,-0.175,-0.16,-0.155,-0.165,-0.195,-0.21,-0.23,-0.225,-0.24,-0.255,-0.265,-0.31,-0.32,-0.31,-0.295,-0.3,-0.31,-0.32,-0.33,-0.345,-0.36,-0.345,-0.345,-0.355,-0.35,-0.35,-0.355,-0.34,-0.355,-0.355,-0.36,-0.33,-0.31
-0.36,-0.39,-0.4,-0.395,-0.335,-0.33,-0.355,-0.38,-0.395,-0.39,-0.37,-0.35,-0.355,-0.35,-0.375,-0.365,-0.35,-0.33,-0.365,-0.365,-0.36,-0.35,-0.335,-0.335,-0.365,-0.395,-0.385,-0.37,-0.365,-0.37,-0.4,-0.41,-0.39,-0.4,-0.375,-0.37,-0.37,-0.395,-0.38,-0.375,-0.36,-0.355,-0.35,-0.34,-0.335,-0.34,-0.32,-0.31,-0.31,-0.31,-0.29,-0.255,-0.215,-0.185,-0.15,-0.115,-0.075,-0.05,-0.06,-0.075,-0.12,-0.14,-0.18,-0.19,-0.18,-0.185,-0.205,-0.23,-0.255,-0.265,-0.28,-0.295,-0.315,-0.35,-0.365,-0.365,-0.35,-0.355,-0.38,-0.4,-0.4,-0.38,-0.36,-0.355,-0.365,-0.38,-0.375,-0.39,-0.375,-0.395,-0.45,-0.51,-0.48,-0.34,-0.06,0.31,0.77,1.21,1.575,1.81,1.935,1.965,1.92,1.71,1.33,0.775,0.135,-0.495,-0.79,-0.72,-0.53,-0.44,-0.44,-0.45,-0.44,-0.42,-0.42,-0.43,-0.43,-0.455,-0.445,-0.46,-0.46,-0.47,-0.465,-0.445,-0.445,-0.445,-0.465,-0.46,-0.445,-0.44,-0.465,-0.455,-0.445,-0.43,-0.425,-0.42,-0.41,-0.415,-0.425,-0.415,-0.395,-0.4,-0.41,-0.435,-0.435,-0.4,-0.385,-0.385,-0.395,-0.39,-0.39,-0.36,-0.35,-0.36,-0.385,-0.37,-0.34,-0.325,-0.305,-0.305,-0.295,-0.29,-0.29,-0.275,-0.25,-0.235,-0.245,-0.24,-0.24,-0.2,-0.16,-0.14,-0.135,-0.13,-0.11,-0.09,-0.055,-0.04,-0.04,-0.03,-0.005,0.05,0.085,0.095,0.14,0.14,0.165,0.21,0.27,0.315,0.335,0.33,0.375,0.41,0.45,0.48,0.485,0.51,0.55,0.565,0.59,0.595,0.565,0.555,0.54,0.54,0.535,0.515,0.48,0.445,0.435,0.405,0.375,0.33,0.3,0.24,0.21,0.17,0.17,0.145,0.1,0.04,0.02,0.005,-0.01,-0.035,-0.06,-0.105,-0.13,-0.13,-0.12,-0.12,-0.155,-0.185,-0.195,-0.205,-0.2,-0.225,-0.24,-0.265,-0.285,-0.28,-0.285,-0.27,-0.295,-0.315,-0.33,-0.335,-0.335,-0.345,-0.36,-0.375,-0.375,-0.365,-0.36,-0.345,-0.345,-0.365,-0.37,-0.38,-0.355,-0.325,-0.33
-0.255,-0.26,-0.27,-0.26,-0.25,-0.235,-0.225,-0.185,-0.16,-0.125,-0.13,-0.155,-0.18,-0.19,-0.17,-0.155,-0.15,-0.13,-0.115,-0.11,-0.11,-0.125,-0.12,-0.145,-0.145,-0.12,-0.12,-0.1,-0.095,-0.11,-0.135,-0.125,-0.1,-0.095,-0.125,-0.15,-0.155,-0.13,-0.11,-0.1,-0.12,-0.12,-0.12,-0.09,-0.05,-0.04,-0.03,-0.015,-0.015,-0.02,-0.005,0.025,0.05,0.045,0.1,0.17,0.21,0.215,0.2,0.155,0.165,0.195,0.2,0.165,0.115,0.09,0.075,0.065,0.05,0.0,-0.045,-0.095,-0.09,-0.055,-0.03,-0.05,-0.07,-0.115,-0.155,-0.2,-0.225,-0.22,-0.175,-0.155,-0.15,-0.15,-0.145,-0.165,-0.2,-0.22,-0.235,-0.25,-0.185,-0.02,0.24,0.605,1.09,1.545,1.875,2.03,2.075,2.025,1.91,1.66,1.2,0.56,-0.08,-0.51,-0.47,-0.26,-0.15,-0.17,-0.21,-0.19,-0.17,-0.13,-0.14,-0.12,-0.13,-0.15,-0.175,-0.165,-0.155,-0.16,-0.19,-0.215,-0.215,-0.22,-0.22,-0.24,-0.25,-0.25,-0.23,-0.22,-0.185,-0.165,-0.175,-0.17,-0.15,-0.145,-0.145,-0.19,-0.22,-0.225,-0.22,-0.165,-0.13,-0.145,-0.175,-0.185,-0.17,-0.14,-0.105,-0.11,-0.125,-0.145,-0.155,-0.095,-0.04,0.01,0.04,0.03,0.0,-0.02,-0.04,-0.07,-0.07,-0.06,-0.005,0.025,0.03,0.055,0.065,0.05,0.07,0.115,0.14,0.16,0.185,0.205,0.255,0.295,0.325,0.355,0.35,0.365,0.41,0.455,0.48,0.5,0.515,0.54,0.57,0.58,0.625,0.635,0.65,0.665,0.69,0.71,0.71,0.71,0.69,0.66,0.635,0.615,0.59,0.565,0.525,0.495,0.465,0.44,0.45,0.435,0.38,0.32,0.315,0.28,0.25,0.21,0.175,0.135,0.125,0.135,0.13,0.1,0.06,0.045,0.045,0.01,-0.025,-0.075,-0.11,-0.13,-0.14,-0.11,-0.08,-0.08,-0.115,-0.155,-0.175,-0.155,-0.11,-0.105,-0.13,-0.16,-0.19,-0.16,-0.15,-0.165,-0.18,-0.19,-0.17,-0.155,-0.155,-0.145,-0.145,-0.155,-0.165,-0.17,-0.14,-0.155,-0.18,-0.21,-0.205
-0.385,-0.37,-0.36,-0.35,-0.35,-0.345,-0.35,-0.33,-0.325,-0.33,-0.335,-0.34,-0.35,-0.345,-0.35,-0.335,-0.34,-0.335,-0.355,-0.335,-0.315,-0.32,-0.335,-0.365,-0.375,-0.36,-0.34,-0.325,-0.335,-0.34,-0.36,-0.38,-0.37,-0.36,-0.355,-0.375,-0.375,-0.36,-0.355,-0.35,-0.35,-0.365,-0.365,-0.355,-0.345,-0.355,-0.35,-0.37,-0.365,-0.35,-0.35,-0.35,-0.365,-0.36,-0.365,-0.355,-0.345,-0.345,-0.345,-0.36,-0.36,-0.335,-0.34,-0.34,-0.345,-0.36,-0.37,-0.355,-0.34,-0.34,-0.35,-0.365,-0.365,-0.355,-0.34,-0.325,-0.325,-0.335,-0.36,-0.335,-0.31,-0.3,-0.3,-0.285,-0.28,-0.245,-0.215,-0.19,-0.16,-0.125,-0.055,0.085,0.325,0.805,1.4,1.8,1.89,1.815,1.73,1.665,1.62,1.54,1.44,1.33,1.26,1.165,1.1,1.005,0.895,0.79,0.675,0.53,0.39,0.21,0.02,-0.175,-0.39,-0.61,-0.865,-1.105,-1.31,-1.5,-1.65,-1.805,-1.945,-2.045,-2.12,-2.17,-2.195,-2.26,-2.345,-2.43,-2.5,-2.53,-2.565,-2.63,-2.675,-2.69,-2.6,-2.395,-2.165,-1.94,-1.75,-1.58,-1.455,-1.34,-1.26,-1.185,-1.135,-1.09,-1.065,-1.01,-0.98,-0.975,-0.97,-0.965,-0.95,-0.875,-0.81,-0.75,-0.69,-0.65,-0.605,-0.555,-0.465,-0.405,-0.34,-0.275,-0.215,-0.17,-0.095,-0.035,0.0,0.045,0.05,0.05,0.075,0.085,0.105,0.105,0.12,0.145,0.185,0.215,0.235,0.255,0.265,0.3,0.335,0.36,0.365,0.37,0.4,0.435,0.49,0.525,0.56,0.585,0.6,0.635,0.685,0.72,0.75,0.775,0.81,0.845,0.88,0.91,0.94,0.96,0.95,0.97,0.995,1.015,1.01,1.01,1.01,1.015,1.035,1.035,1.01,0.99,0.965,0.95,0.955,0.925,0.875,0.865,0.83,0.8,0.79,0.75,0.72,0.67,0.62,0.585,0.54,0.495,0.45,0.385,0.32,0.29,0.25,0.225,0.175,0.12,0.065,0.04,0.01,-0.02,-0.055,-0.09,-0.135,-0.15,-0.165,-0.185,-0.21,-0.22,-0.24,-0.26,-0.26,-0.28,-0.295,-0.31,-0.33
-0.32,-0.31,-0.335,-0.345,-0.355,-0.345,-0.33,-0.325,-0.34,-0.345,-0.33,-0.325,-0.325,-0.345,-0.355,-0.355,-0.35,-0.345,-0.34,-0.36,-0.355,-0.36,-0.35,-0.35,-0.35,-0.375,-0.375,-0.385,-0.38,-0.365,-0.35,-0.36,-0.38,-0.375,-0.345,-0.325,-0.305,-0.295,-0.295,-0.285,-0.255,-0.21,-0.17,-0.13,-0.12,-0.115,-0.095,-0.075,-0.06,-0.025,-0.015,-0.015,-0.02,-0.03,-0.05,-0.06,-0.08,-0.1,-0.08,-0.065,-0.075,-0.09,-0.11,-0.115,-0.11,-0.12,-0.15,-0.185,-0.215,-0.25,-0.265,-0.27,-0.295,-0.325,-0.345,-0.37,-0.375,-0.38,-0.385,-0.39,-0.41,-0.435,-0.425,-0.445,-0.44,-0.445,-0.44,-0.425,-0.4,-0.37,-0.33,-0.255,-0.075,0.335,0.95,1.515,1.74,1.64,1.47,1.365,1.32,1.295,1.21,1.135,1.035,0.93,0.875,0.8,0.72,0.625,0.5,0.385,0.29,0.17,0.055,-0.095,-0.25,-0.395,-0.52,-0.65,-0.795,-0.97,-1.155,-1.35,-1.49,-1.575,-1.62,-1.66,-1.72,-1.755,-1.805,-1.905,-2.01,-2.125,-2.215,-2.29,-2.375,-2.425,-2.475,-2.445,-2.35,-2.205,-2.03,-1.85,-1.675,-1.505,-1.4,-1.345,-1.28,-1.23,-1.18,-1.14,-1.1,-1.075,-1.045,-1.03,-1.01,-0.985,-0.94,-0.885,-0.81,-0.745,-0.66,-0.615,-0.585,-0.525,-0.44,-0.365,-0.275,-0.215,-0.15,-0.105,-0.045,0.015,0.05,0.065,0.085,0.1,0.125,0.15,0.17,0.175,0.185,0.205,0.22,0.255,0.27,0.285,0.305,0.31,0.34,0.365,0.385,0.415,0.435,0.445,0.485,0.515,0.555,0.565,0.595,0.61,0.645,0.675,0.71,0.73,0.755,0.775,0.81,0.83,0.85,0.87,0.88,0.905,0.915,0.935,0.95,0.94,0.95,0.94,0.955,0.96,0.95,0.945,0.93,0.925,0.92,0.91,0.88,0.865,0.83,0.805,0.785,0.77,0.745,0.715,0.68,0.65,0.62,0.595,0.555,0.525,0.485,0.42,0.395,0.365,0.33,0.29,0.235,0.195,0.17,0.155,0.1,0.06,0.025,-0.025,-0.04,-0.075,-0.1,-0.135,-0.165,-0.21,-0.21,-0.21,-0.23
-0.1,-0.1,-0.095,-0.08,-0.075,-0.085,-0.1,-0.075,-0.08,-0.095,-0.11,-0.13,-0.155,-0.165,-0.2,-0.225,-0.245,-0.255,-0.29,-0.305,-0.33,-0.33,-0.36,-0.385,-0.405,-0.42,-0.425,-0.45,-0.44,-0.48,-0.475,-0.47,-0.47,-0.48,-0.495,-0.495,-0.505,-0.495,-0.485,-0.49,-0.49,-0.495,-0.51,-0.515,-0.5,-0.505,-0.51,-0.51,-0.515,-0.51,-0.495,-0.505,-0.505,-0.51,-0.515,-0.51,-0.5,-0.505,-0.52,-0.52,-0.535,-0.53,-0.515,-0.51,-0.505,-0.515,-0.52,-0.53,-0.505,-0.5,-0.5,-0.505,-0.52,-0.515,-0.5,-0.495,-0.5,-0.515,-0.51,-0.515,-0.5,-0.48,-0.475,-0.485,-0.485,-0.475,-0.45,-0.44,-0.425,-0.42,-0.4,-0.35,-0.24,-0.01,0.415,0.97,1.465,1.66,1.59,1.47,1.375,1.315,1.26,1.185,1.11,1.015,0.935,0.84,0.755,0.695,0.62,0.515,0.395,0.265,0.13,0.0,-0.13,-0.29,-0.48,-0.69,-0.9,-1.09,-1.28,-1.46,-1.64,-1.83,-1.99,-2.08,-2.13,-2.17,-2.185,-2.215,-2.25,-2.305,-2.38,-2.47,-2.535,-2.585,-2.63,-2.665,-2.65,-2.59,-2.485,-2.34,-2.23,-2.05,-1.875,-1.7,-1.545,-1.435,-1.38,-1.295,-1.225,-1.145,-1.105,-1.06,-1.015,-0.965,-0.935,-0.915,-0.905,-0.885,-0.835,-0.75,-0.675,-0.62,-0.57,-0.53,-0.47,-0.405,-0.335,-0.27,-0.22,-0.16,-0.095,-0.025,0.02,0.09,0.135,0.155,0.175,0.2,0.22,0.235,0.235,0.245,0.265,0.305,0.33,0.35,0.34,0.355,0.36,0.39,0.42,0.425,0.44,0.44,0.46,0.49,0.525,0.535,0.55,0.57,0.585,0.6,0.63,0.65,0.675,0.705,0.73,0.765,0.8,0.805,0.795,0.815,0.85,0.88,0.895,0.895,0.895,0.885,0.905,0.92,0.925,0.925,0.92,0.93,0.94,0.955,0.945,0.93,0.905,0.89,0.88,0.88,0.855,0.835,0.815,0.79,0.78,0.755,0.74,0.71,0.675,0.65,0.62,0.615,0.6,0.555,0.525,0.495,0.475,0.455,0.45,0.435,0.405,0.4,0.395,0.405,0.4,0.385,0.365,0.325,0.32
-0.575,-0.57,-0.57,-0.555,-0.55,-0.555,-0.55,-0.56,-0.56,-0.545,-0.55,-0.55,-0.565,-0.55,-0.555,-0.54,-0.565,-0.575,-0.595,-0.615,-0.62,-0.605,-0.58,-0.585,-0.585,-0.595,-0.6,-0.59,-0.605,-0.6,-0.585,-0.58,-0.575,-0.575,-0.59,-0.595,-0.615,-0.585,-0.565,-0.545,-0.555,-0.56,-0.57,-0.575,-0.56,-0.57,-0.585,-0.59,-0.59,-0.59,-0.58,-0.57,-0.55,-0.535,-0.54,-0.55,-0.535,-0.515,-0.515,-0.525,-0.545,-0.565,-0.56,-0.55,-0.515,-0.51,-0.51,-0.53,-0.515,-0.515,-0.5,-0.495,-0.495,-0.49,-0.49,-0.48,-0.475,-0.47,-0.47,-0.465,-0.465,-0.455,-0.46,-0.45,-0.435,-0.44,-0.425,-0.405,-0.4,-0.38,-0.325,-0.215,0.05,0.54,1.15,1.595,1.705,1.57,1.43,1.36,1.315,1.25,1.16,1.055,0.965,0.885,0.795,0.715,0.6,0.47,0.34,0.215,0.065,-0.095,-0.265,-0.435,-0.615,-0.82,-1.025,-1.24,-1.425,-1.6,-1.745,-1.9,-2.005,-2.085,-2.14,-2.17,-2.19,-2.23,-2.295,-2.395,-2.47,-2.55,-2.59,-2.64,-2.68,-2.685,-2.61,-2.46,-2.265,-2.07,-1.87,-1.685,-1.545,-1.46,-1.385,-1.315,-1.23,-1.17,-1.12,-1.065,-1.0,-0.955,-0.94,-0.935,-0.935,-0.915,-0.845,-0.775,-0.7,-0.655,-0.605,-0.55,-0.495,-0.435,-0.375,-0.32,-0.24,-0.165,-0.095,-0.045,0.015,0.06,0.09,0.12,0.145,0.175,0.185,0.195,0.2,0.23,0.255,0.285,0.285,0.3,0.31,0.34,0.38,0.41,0.435,0.46,0.485,0.515,0.54,0.58,0.625,0.655,0.71,0.765,0.825,0.895,0.93,0.98,1.005,1.04,1.08,1.105,1.145,1.17,1.195,1.195,1.195,1.195,1.195,1.2,1.2,1.21,1.2,1.22,1.225,1.21,1.185,1.175,1.175,1.16,1.125,1.08,1.045,1.005,0.975,0.945,0.895,0.85,0.795,0.745,0.7,0.665,0.635,0.57,0.53,0.475,0.43,0.38,0.325,0.275,0.225,0.18,0.14,0.105,0.045,-0.005,-0.07,-0.11,-0.14,-0.16,-0.195,-0.245,-0.28,-0.32,-0.345,-0.37,-0.4,-0.435,-0.455
-0.67,-0.655,-0.645,-0.64,-0.64,-0.645,-0.645,-0.64,-0.62,-0.62,-0.625,-0.61,-0.625,-0.605,-0.605,-0.61,-0.61,-0.615,-0.615,-0.605,-0.595,-0.6,-0.595,-0.6,-0.605,-0.585,-0.57,-0.57,-0.585,-0.6,-0.61,-0.605,-0.595,-0.595,-0.605,-0.6,-0.61,-0.59,-0.585,-0.58,-0.585,-0.595,-0.6,-0.595,-0.585,-0.585,-0.59,-0.59,-0.58,-0.575,-0.565,-0.565,-0.58,-0.58,-0.58,-0.57,-0.565,-0.56,-0.575,-0.585,-0.59,-0.555,-0.555,-0.565,-0.56,-0.555,-0.55,-0.535,-0.53,-0.54,-0.55,-0.545,-0.565,-0.555,-0.54,-0.54,-0.54,-0.53,-0.535,-0.535,-0.52,-0.51,-0.51,-0.515,-0.52,-0.485,-0.47,-0.465,-0.445,-0.445,-0.42,-0.35,-0.19,0.155,0.715,1.3,1.595,1.55,1.37,1.26,1.185,1.125,1.025,0.925,0.81,0.705,0.595,0.475,0.35,0.245,0.105,-0.07,-0.26,-0.45,-0.64,-0.835,-1.03,-1.28,-1.51,-1.715,-1.895,-2.065,-2.195,-2.295,-2.395,-2.46,-2.485,-2.51,-2.54,-2.615,-2.69,-2.76,-2.82,-2.875,-2.91,-2.945,-2.94,-2.845,-2.665,-2.44,-2.2,-1.975,-1.77,-1.625,-1.535,-1.425,-1.33,-1.22,-1.105,-1.015,-0.925,-0.845,-0.78,-0.73,-0.675,-0.63,-0.55,-0.445,-0.355,-0.315,-0.295,-0.26,-0.22,-0.15,-0.08,-0.005,0.07,0.105,0.16,0.22,0.27,0.29,0.31,0.29,0.275,0.28,0.27,0.265,0.255,0.24,0.245,0.255,0.27,0.27,0.275,0.255,0.27,0.305,0.32,0.325,0.32,0.34,0.355,0.39,0.415,0.45,0.48,0.5,0.515,0.55,0.59,0.615,0.64,0.665,0.685,0.715,0.745,0.76,0.77,0.775,0.785,0.805,0.825,0.83,0.815,0.81,0.81,0.82,0.825,0.8,0.775,0.755,0.735,0.7,0.675,0.655,0.615,0.595,0.54,0.525,0.475,0.43,0.375,0.335,0.28,0.24,0.2,0.155,0.1,0.045,0.0,-0.035,-0.065,-0.125,-0.175,-0.235,-0.275,-0.305,-0.335,-0.375,-0.415,-0.465,-0.49,-0.49,-0.5,-0.54,-0.57,-0.595,-0.615,-0.62,-0.62,-0.63,-0.64,-0.655,-0.665
-0.66,-0.645,-0.65,-0.655,-0.665,-0.655,-0.64,-0.615,-0.63,-0.64,-0.655,-0.65,-0.645,-0.62,-0.62,-0.61,-0.63,-0.645,-0.635,-0.63,-0.625,-0.63,-0.64,-0.64,-0.625,-0.625,-0.635,-0.635,-0.64,-0.645,-0.635,-0.625,-0.635,-0.63,-0.63,-0.635,-0.625,-0.635,-0.635,-0.645,-0.65,-0.64,-0.625,-0.61,-0.61,-0.615,-0.625,-0.63,-0.63,-0.625,-0.605,-0.61,-0.615,-0.63,-0.605,-0.6,-0.6,-0.61,-0.62,-0.63,-0.615,-0.58,-0.59,-0.6,-0.61,-0.61,-0.6,-0.605,-0.595,-0.605,-0.6,-0.605,-0.575,-0.575,-0.585,-0.585,-0.585,-0.58,-0.565,-0.555,-0.56,-0.57,-0.575,-0.575,-0.56,-0.54,-0.525,-0.505,-0.485,-0.47,-0.425,-0.315,-0.075,0.41,1.025,1.445,1.46,1.28,1.115,1.075,1.035,1.0,0.93,0.845,0.745,0.64,0.54,0.445,0.375,0.285,0.135,-0.04,-0.23,-0.45,-0.655,-0.86,-1.105,-1.37,-1.605,-1.81,-1.98,-2.13,-2.255,-2.32,-2.39,-2.44,-2.45,-2.5,-2.61,-2.71,-2.79,-2.865,-2.91,-2.945,-2.96,-2.95,-2.87,-2.695,-2.49,-2.305,-2.135,-1.98,-1.85,-1.735,-1.625,-1.515,-1.425,-1.355,-1.29,-1.22,-1.18,-1.145,-1.135,-1.115,-1.085,-1.05,-0.955,-0.89,-0.81,-0.755,-0.7,-0.64,-0.54,-0.45,-0.38,-0.335,-0.28,-0.23,-0.17,-0.09,-0.045,-0.02,-0.01,0.01,0.03,0.065,0.075,0.095,0.11,0.125,0.16,0.175,0.195,0.205,0.225,0.24,0.265,0.29,0.325,0.355,0.39,0.415,0.465,0.475,0.51,0.535,0.57,0.6,0.645,0.695,0.72,0.75,0.77,0.8,0.865,0.895,0.915,0.94,0.94,0.965,0.99,1.01,1.02,1.02,1.01,1.015,1.025,1.035,1.02,1.0,0.975,0.945,0.915,0.89,0.855,0.83,0.785,0.75,0.725,0.68,0.635,0.59,0.545,0.485,0.455,0.42,0.375,0.32,0.27,0.21,0.17,0.145,0.09,0.045,-0.005,-0.05,-0.08,-0.115,-0.165,-0.22,-0.275,-0.3,-0.32,-0.34,-0.35,-0.37,-0.385,-0.42,-0.44,-0.425,-0.42,-0.405,-0.415,-0.445,-0.465
-0.505,-0.505,-0.49,-0.48,-0.485,-0.48,-0.49,-0.475,-0.465,-0.455,-0.455,-0.465,-0.49,-0.49,-0.495,-0.45,-0.445,-0.44,-0.455,-0.47,-0.47,-0.485,-0.48,-0.49,-0.495,-0.485,-0.475,-0.47,-0.485,-0.495,-0.5,-0.505,-0.49,-0.485,-0.49,-0.495,-0.495,-0.495,-0.49,-0.485,-0.495,-0.505,-0.52,-0.51,-0.5,-0.475,-0.485,-0.455,-0.46,-0.435,-0.41,-0.395,-0.37,-0.315,-0.27,-0.245,-0.205,-0.185,-0.19,-0.195,-0.185,-0.17,-0.13,-0.08,-0.09,-0.11,-0.135,-0.16,-0.165,-0.17,-0.175,-0.18,-0.195,-0.19,-0.195,-0.215,-0.23,-0.23,-0.255,-0.28,-0.295,-0.31,-0.33,-0.365,-0.395,-0.415,-0.425,-0.425,-0.435,-0.43,-0.43,-0.4,-0.275,0.02,0.54,1.175,1.545,1.46,1.21,1.045,0.98,0.905,0.8,0.695,0.59,0.485,0.35,0.235,0.125,0.015,-0.125,-0.28,-0.455,-0.595,-0.735,-0.88,-1.015,-1.16,-1.355,-1.58,-1.795,-1.975,-2.135,-2.255,-2.3,-2.34,-2.375,-2.395,-2.42,-2.47,-2.565,-2.65,-2.725,-2.77,-2.815,-2.855,-2.875,-2.835,-2.735,-2.54,-2.32,-2.115,-1.92,-1.755,-1.64,-1.565,-1.475,-1.4,-1.355,-1.31,-1.265,-1.24,-1.205,-1.155,-1.1,-1.055,-1.0,-0.91,-0.81,-0.755,-0.73,-0.7,-0.595,-0.45,-0.3,-0.225,-0.205,-0.175,-0.125,-0.055,0.0,0.02,0.05,0.065,0.08,0.095,0.12,0.165,0.2,0.23,0.255,0.295,0.325,0.36,0.37,0.395,0.41,0.435,0.47,0.515,0.545,0.55,0.59,0.615,0.645,0.7,0.74,0.775,0.81,0.825,0.86,0.9,0.92,0.94,0.955,0.97,1.0,1.025,1.015,1.03,1.02,1.015,1.02,1.03,1.015,1.005,0.995,0.975,0.95,0.945,0.91,0.875,0.835,0.8,0.78,0.75,0.7,0.66,0.6,0.56,0.53,0.495,0.445,0.395,0.355,0.295,0.26,0.225,0.175,0.12,0.06,0.01,-0.02,-0.055,-0.095,-0.14,-0.185,-0.225,-0.255,-0.27,-0.295,-0.325,-0.355,-0.375,-0.385,-0.405,-0.415,-0.44,-0.46,-0.48,-0.455,-0.46,-0.47,-0.48,-0.49
